20.000000000000007, 0.18666153457374546
20.500000000000007, 0.18931480820582047
21.000000000000007, 0.19307021351746756
21.500000000000007, 0.19759466514481605
22.000000000000007, 0.20116607598026304
22.500000000000007, 0.20349799606180385
23.000000000000007, 0.20726603994714532
23.500000000000007, 0.2132657855481428
24.000000000000007, 0.21959266570260605
24.5, 0.2253147598381694
25.000000000000007, 0.23044699144002512
25.500000000000007, 0.2343923835911672
26.000000000000007, 0.23661698572767265
26.500000000000007, 0.23969420477201486
27.000000000000007, 0.2463111077018113
27.500000000000014, 0.2538642169521903
28.000000000000014, 0.25973300120618015
28.500000000000014, 0.2656195099329921
29.000000000000007, 0.27219186111027205
29.500000000000014, 0.2765239433815524
30.000000000000007, 0.27910369842220395
30.500000000000007, 0.28546886774604086
31.000000000000007, 0.2953531293824352
31.500000000000007, 0.30294471390151867
32.000000000000014, 0.3075869105833029
32.500000000000014, 0.312079185187642
33.00000000000001, 0.31793563691047355
33.50000000000001, 0.3256652814662777
34.000000000000014, 0.33388072692295245
34.500000000000014, 0.34064702098681965
35.000000000000014, 0.34418352977056754
35.50000000000001, 0.34566696334919933
36.00000000000001, 0.35265410370846517
36.49999999999999, 0.36603162191828453
36.99999999999999, 0.3755194051591919
37.50000000000001, 0.3791929478952416
37.99999999999999, 0.38457250425241596
38.49999999999999, 0.39292255125933395
38.99999999999999, 0.4007756097467161
39.50000000000001, 0.4068526424060781
40.00000000000001, 0.4112744728198918
40.50000000000001, 0.4153861955611826
41.00000000000001, 0.4209129089816258
41.49999999999999, 0.4294192889425894
41.99999999999999, 0.4403657317023598
42.49999999999999, 0.4481606694688083
43.00000000000001, 0.4504947407045653
43.50000000000001, 0.4518200079760669
44.00000000000001, 0.45477768403545493
44.49999999999999, 0.45910360633056835
44.99999999999999, 0.46415429100162
45.49999999999999, 0.46929262836184293
46.00000000000001, 0.47566231594465935
46.50000000000001, 0.48470541082337826
47.00000000000001, 0.4933974240355652
47.50000000000001, 0.49816914662518674
48.00000000000001, 0.5003413999713607
48.50000000000001, 0.5023191248424513
48.99999999999999, 0.5059973831952022
49.50000000000001, 0.5108308062071597
50.00000000000001, 0.5120562459618856
50.49999999999999, 0.5112452353846652
51.00000000000001, 0.5181432173567347
51.50000000000001, 0.5311491763345322
52.00000000000001, 0.538885915924562
52.50000000000001, 0.5404127100233618
52.99999999999999, 0.5410723360405382
53.50000000000001, 0.5428224108028286
54.00000000000001, 0.5461760290029207
54.50000000000001, 0.5518885158347401
55.00000000000001, 0.5595409206993718
55.49999999999999, 0.5649271581114242
56.00000000000001, 0.5663069091118625
56.50000000000001, 0.5684566371936396
57.00000000000001, 0.5736444986219406
57.50000000000001, 0.5794555966944213
58.00000000000001, 0.5841091590851736
58.50000000000001, 0.5869728176480913
58.99999999999999, 0.5895205173999134
59.50000000000001, 0.594289581088721
60.00000000000001, 0.6009622981030187
60.50000000000001, 0.6078684106757264
61.00000000000001, 0.6134361075994834
61.50000000000001, 0.6171287655953628
62.00000000000001, 0.6218130541503584
62.50000000000001, 0.6288723695699581
63.00000000000001, 0.63467949751677
63.50000000000001, 0.6377897808129371
64, 0.6412138659612991
64.5, 0.6462774360208398
65, 0.6520994978005
65.5, 0.6586753322968568
66.00000000000003, 0.6664358075981764
66.5, 0.6729603546440215
67.00000000000003, 0.6752813804529861
67.5, 0.6759958153376694
68, 0.6784610495849097
68.50000000000003, 0.681334009698661
69, 0.683526511869456
69.50000000000003, 0.6874141425625591
70, 0.69342650439799
70.5, 0.6977590541232028
71, 0.6990815846255206
71.50000000000003, 0.6995067102821972
72.00000000000003, 0.7004447758240936
72.5, 0.7024023107767494
73, 0.7044432553125749
73.5, 0.7052403611740747
74, 0.7062784068418188
74.5, 0.7092453156559501
75, 0.7119180598052073
75.5, 0.7123294246982236
76, 0.7121698160498766
76.5, 0.712806022826074
77, 0.7137583591543303
77.50000000000003, 0.7146474198927604
78, 0.7155051356492629
78.50000000000003, 0.7163972337521798
79.00000000000003, 0.7173739490938772
79.5, 0.7182473892191152
80.00000000000003, 0.7187523723380407
80.50000000000003, 0.719175269282115
81.00000000000003, 0.7199394297365593
81.5, 0.7209561052842277
82, 0.7219634297292153
82.5, 0.7226354158189002
83, 0.7228636608791393
83.5, 0.7230266374218529
84, 0.7234372307830839
84.5, 0.7242088136925857
85, 0.7251499379068352
85.5, 0.7258090422124562
86, 0.7261908431406353
86.5, 0.7265993167780281
87, 0.7270640589746952
87.5, 0.7275016130545026
88, 0.7279598412363212
88.5, 0.7284643605762876
89, 0.7288090899495347
89.5, 0.7288514753422142
90, 0.72871976441663
90.5, 0.728653015033499
91.00000000000003, 0.7289932552592738
91.5, 0.7297156518706926
92.00000000000003, 0.7303873509025043
92.50000000000003, 0.7307903327949492
93.00000000000003, 0.7309067882140808
93.5, 0.7308571956655189
94.00000000000003, 0.7308159831691857
94.5, 0.7308489878513709
95, 0.7309928261384896
95.5, 0.7313273224585451
96.00000000000003, 0.7318244325334866
96.5, 0.7321484328978335
97.00000000000003, 0.7321461760106733
97.5, 0.7320749528510309
98.00000000000003, 0.7320801655135133
98.50000000000003, 0.7321154714472299
99, 0.7321144954200401
99.50000000000003, 0.7320275449364836
100.00000000000003, 0.732054970681681
100.50000000000003, 0.7324593188518322
101, 0.7329181956884039
101.5, 0.7330084803307432
102, 0.7329198330349467
102.5, 0.7329079261351924
103, 0.7329310314199844
103.5, 0.7329314086572105
104, 0.7329257542322246
104.5, 0.7329262954988993
105.00000000000003, 0.732927477485193
105.50000000000003, 0.7329271718721238
106.00000000000003, 0.7329274693220194
106.5, 0.7329274544403557
107.00000000000003, 0.7329251728452042
107.5, 0.7329266608069032
108.00000000000003, 0.7329354656054472
108.50000000000003, 0.7329250480404012
109.00000000000003, 0.7328941319698842
109.50000000000003, 0.732952456716412
110.00000000000003, 0.7330510630400544
110.50000000000003, 0.7327528225074373
111, 0.7320207709401516
111.5, 0.7314778795045432
112.00000000000003, 0.7313037306641721
112.50000000000003, 0.7311698567372605
113.00000000000003, 0.7309250573541135
113.50000000000003, 0.730564340641216
114, 0.7300761867808078
114.50000000000003, 0.7294540428821477
115, 0.7287458995458583
115.5, 0.7280311360186011
116, 0.7274351214972282
116.50000000000003, 0.7269983527025292
117, 0.7265311572214178
117.50000000000003, 0.7258862429687332
118, 0.7250475291855968
118.50000000000003, 0.7241287728518636
119, 0.7233628518214996
119.50000000000003, 0.7227227864228105
120, 0.7220037821115475
120.50000000000003, 0.7213533573102852
121, 0.7210422384419675
121.50000000000003, 0.720871967604317
122, 0.7205278288666478
122.5, 0.719948811827565
123.00000000000003, 0.7191322235620896
123.50000000000003, 0.7180608889967657
124, 0.7168762461869657
124.50000000000003, 0.7160065898394007
125.00000000000003, 0.7155848172674193
125.50000000000003, 0.715336841057894
126, 0.7151164771146317
126.5, 0.7148911333495044
127.00000000000003, 0.7143758000820061
127.50000000000003, 0.7132619577166699
128, 0.7121703618086905
128.50000000000003, 0.7118315507110837
129, 0.7116956935429205
129.5, 0.7111201595896091
130, 0.7102716234555754
130.50000000000003, 0.7094973227995582
131.00000000000003, 0.709193597845104
131.50000000000003, 0.7092771341767258
132, 0.7090128017526817
132.5, 0.7082680096057338
133, 0.7075170231206162
133.50000000000003, 0.7068746700896145
134, 0.7062119263863663
134.5, 0.7055396753676141
135.00000000000003, 0.7049553579868069
135.5, 0.7046514210526477
136, 0.7046142087987111
136.50000000000003, 0.7040431763641252
137, 0.7026197258454991
137.50000000000003, 0.7014663737713778
138, 0.7010755095526322
138.50000000000003, 0.7006811469260819
139.00000000000003, 0.6999704942198132
139.50000000000003, 0.6992232627551518
140.00000000000003, 0.6985713524828594
140.50000000000003, 0.697992608252691
141, 0.6972789335203584
141.50000000000003, 0.6962142188681322
142, 0.695072515151753
142.50000000000006, 0.6941628351357448
143.00000000000003, 0.6932805297623557
143.50000000000003, 0.6923052357375192
144.00000000000003, 0.6916215485642309
144.50000000000003, 0.6912609358021069
145.00000000000003, 0.6905394873810469
145.50000000000003, 0.6893501686084382
146.00000000000003, 0.6883282123894917
146.5, 0.6877241205585366
147, 0.6874027679159779
147.50000000000003, 0.6869106009565391
148, 0.6857543179696085
148.50000000000003, 0.6843064311668795
149.00000000000006, 0.6831807611218857
149.50000000000003, 0.6825818902383699
150.00000000000003, 0.6824157124605046
150.50000000000003, 0.6820591596656214
151.00000000000003, 0.6811765801210429
151.50000000000003, 0.6801426455492308
152, 0.6792397477576413
152.50000000000003, 0.6785191526701502
153.00000000000003, 0.6778714535174889
153.5, 0.6770759670166051
154.00000000000003, 0.6761486658956882
154.50000000000003, 0.675238568399037
155, 0.6743551380840483
155.50000000000003, 0.673459109886536
156.00000000000003, 0.6725713557376393
156.50000000000003, 0.671700500004948
157, 0.6707637066572227
157.50000000000003, 0.6698001492140973
158.00000000000003, 0.6691332484012055
158.50000000000003, 0.6687478633579094
159, 0.6681115234826922
159.50000000000006, 0.6671621366377891
160.00000000000003, 0.6663080949572171
160.50000000000003, 0.6654213380823248
161.00000000000003, 0.6640904983234746
161.50000000000003, 0.6627582268560592
162.00000000000003, 0.66209803644722
162.50000000000003, 0.6618242162286752
163.00000000000003, 0.6614515322485459
163.50000000000003, 0.6608851635292443
164, 0.6600812410807451
164.50000000000003, 0.6589226994265305
165, 0.6575255083622389
165.50000000000003, 0.6563760996581496
166, 0.6555351778758722
166.50000000000006, 0.6545934879159476
167.00000000000003, 0.6536851454435537
167.50000000000003, 0.6532712328791936
168.00000000000003, 0.6528074567395936
168.50000000000003, 0.6514495549124528
169.00000000000003, 0.6497631624578504
169.50000000000003, 0.6485497324226528
170.00000000000003, 0.64754569459141
170.50000000000006, 0.6464198240897012
171.00000000000003, 0.6453262386475092
171.50000000000003, 0.6444097701009097
172.00000000000003, 0.6436573137016304
172.50000000000003, 0.6428210673289749
173, 0.6414200177649396
173.50000000000003, 0.6395420181925751
174.00000000000003, 0.6377406490968636
174.50000000000003, 0.6362665545116142
175.00000000000003, 0.635169784739753
175.50000000000003, 0.6344146263088801
176.00000000000003, 0.63391639311749
176.50000000000003, 0.6335238963906442
177.00000000000003, 0.6330122413582417
177.50000000000003, 0.6319995846781532
178.00000000000003, 0.6304151194547782
178.50000000000003, 0.6288367405746162
179, 0.6275229924118384
179.50000000000003, 0.6262244809743811
180, 0.625088145833667
180.50000000000003, 0.6245806112178667
181.00000000000003, 0.6241773405754907
181.50000000000003, 0.6228952595717236
182.00000000000003, 0.6211904580947567
182.5, 0.6199410158298895
183.00000000000003, 0.618938256980563
183.5, 0.6178122456244697
184.00000000000003, 0.6167222074119938
184.50000000000003, 0.6158150406910174
185.00000000000003, 0.6149851609373664
185.5, 0.6141101993993863
186.00000000000006, 0.6130959705142922
186.50000000000003, 0.6119620758363928
187.00000000000003, 0.610834424255603
187.50000000000003, 0.6097239302752111
188.00000000000003, 0.6085734659382833
188.5, 0.6074763096258364
189.00000000000006, 0.6065544412495623
189.50000000000003, 0.605678611919801
190.00000000000003, 0.6046589223190761
190.50000000000003, 0.6033903649071033
191.00000000000003, 0.6019602281415672
191.5, 0.6008632368630666
192.00000000000003, 0.6002345122383717
192.5, 0.5995389719163087
193.00000000000003, 0.5986086048545691
193.50000000000003, 0.5977514330388565
194.00000000000006, 0.5971177372891052
194.50000000000003, 0.5966897401216102
195.00000000000006, 0.5962354204377024
195.5, 0.5954703102719527
196.00000000000003, 0.5944878092212675
196.50000000000003, 0.5934488175857882
197.00000000000003, 0.5922210954849912
197.5, 0.5907936020219038
198.00000000000003, 0.5896652182869825
198.50000000000003, 0.5890238857388613
199.00000000000003, 0.5883556468495654
199.50000000000003, 0.5874380112571744
200.00000000000003, 0.5864964694343301
200.50000000000003, 0.5856149272338226
201.00000000000003, 0.5847121984480553
201.5, 0.5835256063621626
202.00000000000003, 0.5817944417808891
202.50000000000003, 0.5799939317347705
203.00000000000006, 0.5787798126263899
203.50000000000003, 0.5782523476854916
204.00000000000003, 0.5781572967266293
204.50000000000003, 0.577655392348303
205, 0.5764515259634758
205.50000000000003, 0.5755288773970486
206.00000000000006, 0.5750118578326013
206.50000000000003, 0.5736982666704605
207.00000000000003, 0.5717497173021346
207.50000000000003, 0.570618752206883
208.00000000000003, 0.5703912419276779
208.50000000000003, 0.5702400211584947
209.00000000000003, 0.5696197427907819
209.50000000000003, 0.5683059011417255
210.00000000000006, 0.5669838192892152
210.50000000000003, 0.5662725529752917
211, 0.5656497883906921
211.50000000000003, 0.5647237051387941
212.00000000000006, 0.5639045904536476
212.50000000000003, 0.5634488830628663
213.00000000000003, 0.5632076305951937
213.50000000000009, 0.5628018415958412
214.00000000000009, 0.56170738112215
214.50000000000003, 0.5602747103274008
215, 0.5593791076522407
215.50000000000006, 0.5588118277176879
216.00000000000006, 0.5579577639734193
216.50000000000003, 0.5570525795859925
217.00000000000003, 0.5564957775145828
217.50000000000006, 0.5562049582879671
218.00000000000003, 0.5559996156751028
218.50000000000003, 0.5557286783356823
219.00000000000003, 0.5551619706109643
219.50000000000006, 0.5539530420541812
220.00000000000003, 0.5524839609203406
220.50000000000003, 0.5519038339908215
221.00000000000003, 0.5518288698787222
221.50000000000003, 0.5507965468156732
222.00000000000003, 0.5493274285207731
222.50000000000003, 0.54879090515247
223, 0.5487612035993653
223.50000000000006, 0.5483185717249369
224.00000000000006, 0.5473645817007301
224.50000000000003, 0.5461455329215825
225, 0.5452683136608351
225.50000000000006, 0.5448960326575512
226.00000000000006, 0.5442743108750532
226.50000000000006, 0.5432881164841601
227.00000000000006, 0.5427286624172678
227.50000000000006, 0.5425981869875698
228.00000000000006, 0.5421942956846875
228.50000000000006, 0.5414306923691801
229, 0.5405826937560114
229.5, 0.5396591127246486
230.00000000000006, 0.5386403038755365
230.5, 0.5379085676467347
231, 0.537696480041666
231.50000000000006, 0.537434419181847
232.00000000000006, 0.5367609333921775
232.50000000000006, 0.5360501966915336
233, 0.5355858191700558
233.50000000000006, 0.5353839869545937
234.00000000000006, 0.5351968656755123
234.50000000000006, 0.5345771575238875
235, 0.5335980627610397
235.50000000000006, 0.5326832059143685
236, 0.5321496201781859
236.5, 0.5321332025143892
237.00000000000006, 0.5321177626957021
237.5000000000001, 0.5315832201533418
238.00000000000006, 0.5307011143260245
238.50000000000006, 0.5297633473453537
239, 0.529000960471639
239.50000000000006, 0.5285326961889139
240, 0.5283026689295525
240.50000000000006, 0.5279161473321314
241.00000000000006, 0.5267075714378575
241.50000000000006, 0.5251917471530477
242.00000000000006, 0.5246003278796071
242.5, 0.5244848856795328
243, 0.523734225349259
243.50000000000006, 0.5225471388476344
244.00000000000006, 0.5215010898662602
244.50000000000006, 0.5208326496206674
245.00000000000006, 0.5204755113878745
245.5, 0.51980658347873
246.00000000000006, 0.5184945414250148
246.50000000000006, 0.5168658976706406
247.00000000000006, 0.5154533982447199
247.5, 0.5148972632695632
248.00000000000006, 0.514797300984897
248.5, 0.514013162786535
249, 0.512762827560865
249.5, 0.511913699817516
250, 0.5113552161140642
250.50000000000006, 0.510697692936382
251.00000000000006, 0.5100227242248088
251.50000000000006, 0.5095033047584683
252.00000000000006, 0.5092172227858971
252.50000000000006, 0.5090594428274544
253, 0.5086184731783342
253.5, 0.5078864830565454
254.00000000000006, 0.5074084738723732
254.50000000000006, 0.5072440623561693
255, 0.5069917445052562
255.5, 0.5064838166697154
256.0000000000001, 0.5057541532901648
256.50000000000006, 0.5051308705412706
257, 0.5049126064733609
257.5, 0.5046541799647181
258.00000000000006, 0.5039698993264691
258.50000000000006, 0.5033458703567549
259, 0.503118698634851
259.5, 0.5029517465257599
260.00000000000006, 0.5025411230839485
260.50000000000006, 0.5017679044461293
261, 0.5008261212323202
261.5, 0.5001755326008147
262.00000000000006, 0.49979313224114086
262.50000000000006, 0.4993526585032111
263.00000000000006, 0.4989058567821981
263.5, 0.49858965162635416
264.0000000000001, 0.4980004965695084
264.50000000000006, 0.49684402880133804
265.00000000000006, 0.49582802214344124
265.5, 0.495405251866484
266.00000000000006, 0.49492727625574595
266.50000000000006, 0.49416813802251625
267.00000000000006, 0.4938025907950988
267.5, 0.4936943359654449
268.00000000000006, 0.4927944013314689
268.50000000000006, 0.4913119505545458
269.00000000000006, 0.4903449821623165
269.5, 0.4898039644372645
270.00000000000006, 0.48909180933697727
270.50000000000006, 0.48847640317858665
271.00000000000006, 0.48836906987345985
271.5, 0.4884955695356128
272.00000000000006, 0.48843319840644595
272.50000000000006, 0.487812453817577
273, 0.48664683226717464
273.5, 0.4856017145522584
274.0000000000001, 0.48496044610900735
274.50000000000006, 0.48446421233870185
275.00000000000006, 0.4840197162816601
275.5, 0.4836984784134467
276.00000000000006, 0.48351101109594474
276.50000000000006, 0.48339713290548214
277, 0.483090187079958
277.5, 0.4823351373239726
278.00000000000006, 0.48129313563913767
278.50000000000006, 0.4802696483482435
279, 0.4796566201489503
279.5, 0.4794957834578274
280.00000000000006, 0.479124401578483
280.50000000000006, 0.4783856632822342
281, 0.47789309363382215
281.5, 0.4777320134366536
282.00000000000006, 0.4774630397521151
282.5, 0.4769611114736243
283.00000000000006, 0.47632138496478094
283.50000000000006, 0.47563633836894026
284.0000000000001, 0.4749735528117556
284.50000000000006, 0.47429376499774634
285, 0.4735804637196992
285.5, 0.47299457682951385
286.00000000000006, 0.47257978576719917
286.50000000000006, 0.47205196044422015
287.00000000000006, 0.4713464306988051
287.5, 0.4707783566771644
288.00000000000006, 0.4703673328073693
288.50000000000006, 0.46981415858440045
289, 0.4691089626256302
289.5, 0.4684371241479348
290, 0.4677673522414927
290.50000000000006, 0.4670174357391238
291.00000000000006, 0.46643219221583654
291.5, 0.46620778586991096
292.00000000000006, 0.46596541115001955
292.5, 0.4653675477063197
293, 0.4644895197197998
293.50000000000006, 0.4635455000873201
294.00000000000006, 0.4628671588307396
294.5000000000001, 0.4624631604052497
295.00000000000006, 0.4619867457116824
295.5, 0.46152349752230193
296.0000000000001, 0.4614266907186986
296.50000000000006, 0.46115295469573003
297.00000000000006, 0.4599197302435196
297.5, 0.4585490162407948
298.00000000000006, 0.4580991049119879
298.50000000000006, 0.45813560102184425
299.00000000000006, 0.45801581892015586
299.5, 0.457547741742808
300.00000000000006, 0.4568242902256515
300.50000000000006, 0.45630713896094566
301, 0.4559463281686962
301.50000000000006, 0.4550465494681555
302.0000000000001, 0.4538337845685627
302.50000000000006, 0.4532757654029632
303.00000000000006, 0.4531804937229086
303.5, 0.4527421914651122
304.00000000000006, 0.45193052746665285
304.50000000000006, 0.45101742513017884
305.00000000000006, 0.45015265153741735
305.50000000000006, 0.4494284248467656
306.00000000000006, 0.44886820474873235
306.50000000000006, 0.4484304528649452
307.00000000000006, 0.44797162552824477
307.50000000000006, 0.44749496977280034
308.00000000000006, 0.447210933449649
308.50000000000006, 0.44702431558212874
309.00000000000006, 0.44655934410684917
309.5, 0.4458248968558933
310, 0.4450807632853959
310.50000000000006, 0.44445348126435646
311, 0.4439781594657145
311.5, 0.4435535509755295
312, 0.44308990902303025
312.5000000000001, 0.44267688750867273
313.00000000000006, 0.4423019503430601
313.50000000000006, 0.44164648140958396
314, 0.44069786504885466
314.50000000000006, 0.4399617907332227
315.00000000000006, 0.43956029346041414
315.50000000000006, 0.4391741655758281
316.00000000000006, 0.438710054988787
316.50000000000006, 0.4382511903021694
317, 0.4378104930131723
317.50000000000006, 0.43736624545145464
318, 0.4369182563850438
318.50000000000006, 0.4364719358675344
319.00000000000006, 0.4360251677045657
319.5, 0.4355771728446125
320.00000000000006, 0.43513467140608186
320.50000000000006, 0.43469288562478137
321.00000000000006, 0.4342274278367336
321.50000000000006, 0.43377051949050793
322, 0.43340769015446834
322.50000000000006, 0.43296721037759944
323.00000000000006, 0.43212819647787537
323.50000000000006, 0.4312108616591198
324.00000000000006, 0.43078727508131487
324.50000000000006, 0.43069438442232777
325.00000000000006, 0.4304845172449008
325.5, 0.4297215099905134
326.00000000000006, 0.4283173287785593
326.5000000000001, 0.42713141941203703
327.00000000000006, 0.42666392540352105
327.50000000000006, 0.426440054503735
328.00000000000006, 0.42602669687039396
328.50000000000006, 0.4252090574233611
329.00000000000006, 0.424260887470266
329.5, 0.42381236536966105
330.00000000000006, 0.4236747518931788
330.50000000000006, 0.4232546343025787
331.00000000000006, 0.4228063907536722
331.50000000000006, 0.42277541838256893
332.00000000000006, 0.4227806857272094
332.5, 0.422401842435695
333.00000000000006, 0.4218344264972429
333.50000000000006, 0.42133920893691934
334, 0.4210624838765845
334.50000000000006, 0.42089644015484584
335, 0.42041231475699914
335.50000000000006, 0.41968035989299257
336, 0.41924861561079774
336.50000000000006, 0.4190937583342228
337.00000000000006, 0.41881452938894514
337.5000000000001, 0.41827958267191234
338.00000000000006, 0.41754561591450257
338.5, 0.4169543317279758
339.00000000000006, 0.4167432108143365
339.5, 0.41647854061692924
340, 0.4158350269962988
340.5, 0.4150661883988067
341.0000000000001, 0.41438500757701746
341.50000000000006, 0.4138061582805811
342, 0.41316529459204665
342.5000000000001, 0.4121557693913729
343.00000000000006, 0.41099125407995607
343.5, 0.4102327144561151
344, 0.40992514617830444
344.50000000000006, 0.4098099178701622
345.00000000000006, 0.40948292490654525
345.50000000000006, 0.40872464916607465
346, 0.408217934072993
346.5000000000001, 0.40822987012832435
347.0000000000001, 0.4074269911754441
347.50000000000006, 0.40546277111710605
348.00000000000006, 0.4041131794305798
348.50000000000006, 0.4040030397045974
349.00000000000006, 0.404129579652617
349.50000000000006, 0.40386195796599866
350, 0.40302902397361207
350.50000000000006, 0.402107362209461
351.0000000000001, 0.4017749444655879
351.50000000000006, 0.40160136730927276
352.00000000000006, 0.4009600035714348
352.5000000000001, 0.40028960424506466
353.00000000000006, 0.4000380707940482
353.50000000000006, 0.39986958484108237
354.00000000000006, 0.3994669049749152
354.50000000000006, 0.3988194581564667
355.00000000000006, 0.3981041300728395
355.5, 0.3976811599293445
356.00000000000006, 0.39750981309045297
356.50000000000006, 0.3971954482354575
357, 0.39670371034151797
357.50000000000006, 0.3962226991308163
358, 0.3957964110920994
358.50000000000006, 0.39538889049691517
359.00000000000006, 0.39489649670253135
359.5, 0.3942486461048106
360, 0.39354300204005155
360.50000000000006, 0.3928677473265131
361.0000000000001, 0.3922193282847487
361.50000000000006, 0.39156065368729875
362.00000000000006, 0.39082996360281796
362.50000000000006, 0.3901396717960437
363.00000000000006, 0.3897556935254357
363.50000000000006, 0.3895840700032597
364.00000000000006, 0.3892944077685988
364.50000000000006, 0.3887685400417681
365.00000000000006, 0.3880464117286898
365.50000000000006, 0.38744029195469654
366, 0.38719386779462595
366.5000000000001, 0.3869893042908581
367.00000000000006, 0.3865601117531805
367.5, 0.38605439035427713
368.00000000000006, 0.3856019949697216
368.5000000000001, 0.3852029954542303
369.0000000000001, 0.38477184272863685
369.50000000000006, 0.38415645700653767
370.00000000000006, 0.38346196915407726
370.5, 0.3829582938555388
371.00000000000006, 0.38253625330206176
371.50000000000006, 0.38193295337187305
372, 0.38121888698170514
372.50000000000006, 0.3805436458889634
373.00000000000006, 0.3798782280830827
373.5, 0.379191603860048
374, 0.37856349578862014
374.50000000000006, 0.3780816446452483
375.00000000000006, 0.3778105756500554
375.50000000000006, 0.37762660033111894
376, 0.377192203610608
376.5, 0.3764741149654175
377.00000000000006, 0.3757088411320745
377.5, 0.37507199271980185
378.00000000000006, 0.3746464879334618
378.5, 0.37417524551383974
379.00000000000006, 0.3734245044917529
379.50000000000006, 0.3728799690220719
380.0000000000001, 0.37289414353924444
380.5, 0.3728508968636991
381.00000000000006, 0.3723810095656245
381.50000000000006, 0.3719476810453318
382.00000000000006, 0.37175286356644943
382.5, 0.37151194805941323
383.00000000000006, 0.3710479627491955
383.50000000000006, 0.37034423362719826
384.00000000000006, 0.36967385282885323
384.5, 0.36940477292365925
385.0000000000001, 0.3691953114548203
385.50000000000006, 0.3685571382780186
386, 0.36788549860547726
386.50000000000006, 0.36761993256514625
387.00000000000006, 0.36745548416513507
387.50000000000006, 0.36706733096381305
388.00000000000006, 0.3664236520294277
388.50000000000006, 0.3656964686806482
389.00000000000006, 0.36528785656940477
389.50000000000006, 0.3651268999082202
390.00000000000006, 0.3646662333044628
390.50000000000006, 0.3639305789699302
391, 0.36334004929541897
391.50000000000006, 0.362962375579467
392.00000000000006, 0.3626493010500491
392.5, 0.36207280825467414
393.0000000000001, 0.36107952744564364
393.50000000000006, 0.36037435933781214
394.00000000000006, 0.36038380932556224
394.50000000000006, 0.36038416935692696
395.00000000000006, 0.3599350162856588
395.5000000000001, 0.3593524233169586
396, 0.3588974701302766
396.5, 0.3586665036506701
397.00000000000006, 0.3584655218169729
397.50000000000006, 0.35792683296350003
398.00000000000006, 0.3572027225375375
398.50000000000006, 0.3566708654609384
399.0000000000001, 0.3562806001385904
399.50000000000006, 0.3558560927342701
400.00000000000006, 0.3553826768387781
400.50000000000006, 0.3549068959980607
401.0000000000001, 0.3545291863789545
401.50000000000006, 0.354296437409622
402.00000000000006, 0.35413897673473105
402.50000000000006, 0.35393661964802303
403.00000000000006, 0.3535355072011701
403.5, 0.3530594334526862
404.00000000000006, 0.35285152120793717
404.50000000000006, 0.3529245138830345
405.00000000000006, 0.3530316788810446
405.50000000000006, 0.35257990030530906
406, 0.3511740975383342
406.50000000000006, 0.3499822410746424
407.00000000000006, 0.34994567981922564
407.50000000000006, 0.3499841393364883
408.00000000000006, 0.34931648627538536
408.50000000000006, 0.34854132317575115
409.00000000000006, 0.3480851843772258
409.50000000000006, 0.34788757456055464
410.00000000000006, 0.3476933535684029
410.50000000000006, 0.34713728961513624
411.00000000000006, 0.34642032026571357
411.50000000000006, 0.346051962630035
412.00000000000006, 0.3459008154029788
412.5, 0.34558654869119276
413.0000000000001, 0.345013467147826
413.5000000000001, 0.34426787073092324
414.00000000000006, 0.34374150471950127
414.50000000000006, 0.34357603085285804
415.0000000000001, 0.3432100064407667
415.5, 0.3424781433392394
416.00000000000006, 0.3419622076751214
416.50000000000006, 0.34179207800158984
417.00000000000006, 0.3415553819767986
417.50000000000006, 0.3410627548832892
418.00000000000006, 0.34034402078981174
418.50000000000006, 0.3396994649219569
419.00000000000006, 0.3394478307340557
419.50000000000006, 0.33922506533022667
420, 0.33861072115524415
420.50000000000006, 0.33788079070803834
421.00000000000006, 0.3373633368516544
421.50000000000006, 0.3371040331538485
422.00000000000006, 0.33694571798021666
422.5, 0.3364730340483578
423.00000000000006, 0.33573481952207707
423.50000000000006, 0.3353228314256804
424.00000000000006, 0.33516627991777037
424.50000000000006, 0.33468231170089824
425.00000000000006, 0.333937934404129
425.50000000000006, 0.3333387816972331
426.00000000000006, 0.3330008587966341
426.50000000000006, 0.3328520338978823
427.0000000000001, 0.33251611465656095
427.5000000000001, 0.33179972758928
428.00000000000006, 0.33123904220086287
428.50000000000006, 0.33106896551802345
429.0000000000001, 0.3307243584481798
429.5000000000001, 0.3300135312495175
430.0000000000001, 0.32934135499219397
430.50000000000006, 0.3289220545714284
431.00000000000006, 0.328736031697179
431.50000000000006, 0.32850845399851414
432.00000000000006, 0.3278972096187951
432.50000000000006, 0.3272052075606684
433.00000000000006, 0.32682844808814315
433.50000000000006, 0.3262737606915176
434.00000000000006, 0.32513492687916945
434.5000000000001, 0.3240857863429749
435, 0.32360644190824406
435.50000000000006, 0.3233354005277098
436.00000000000006, 0.32307987989032205
436.50000000000006, 0.32302291127450844
437.00000000000006, 0.3228558621274009
437.5000000000001, 0.32183393640565394
438.00000000000006, 0.3203744188229265
438.5000000000001, 0.3195735325308626
439.00000000000006, 0.31930197432682805
439.50000000000006, 0.3189370336484171
440.00000000000006, 0.318421091807063
440.50000000000006, 0.3179002661297239
441, 0.3175812225145773
441.50000000000006, 0.3174526842128462
442.00000000000006, 0.3169728199465427
442.50000000000006, 0.3160187721639658
443, 0.31523954333510473
443.50000000000006, 0.3148401130390366
444.00000000000006, 0.3144710302609124
444.50000000000006, 0.31400518432433766
445.00000000000006, 0.31351266393472876
445.5000000000001, 0.3130867595866097
446.00000000000006, 0.31280802168721444
446.5000000000001, 0.31262513484732535
447, 0.3124401010574428
447.5000000000001, 0.3121602786166572
448.00000000000006, 0.3117369526954339
448.5000000000001, 0.3112319533634994
449.0000000000001, 0.3107524955335643
449.50000000000006, 0.31044849984117895
450.00000000000006, 0.3102603383621103
450.50000000000006, 0.3098883583852182
451, 0.30940694206724917
451.5, 0.30916767483279173
452, 0.30895574829449424
452.5000000000001, 0.3083341325903114
453.0000000000001, 0.30765097633827754
453.50000000000006, 0.3073837873108155
454.0000000000001, 0.3071864602212222
454.50000000000006, 0.30672204920912227
455, 0.3063198483293317
455.5, 0.30614150756135494
456, 0.305795686028807
456.5000000000001, 0.30511195900828136
457.00000000000006, 0.3043051900233351
457.50000000000006, 0.30363138751514684
458, 0.303320312184865
458.50000000000006, 0.30313509362926283
459.00000000000006, 0.302611815858675
459.5000000000001, 0.30186428273472377
460.00000000000006, 0.3012438032688507
460.50000000000017, 0.30098393618869623
461.0000000000001, 0.30108028612381166
461.5000000000001, 0.30088352229990023
462.00000000000006, 0.30013133265812664
462.50000000000006, 0.2996634570103802
463.00000000000006, 0.29974328845272746
463.5, 0.2995918884355332
464, 0.2990729917086641
464.50000000000006, 0.29875619198453685
465.0000000000001, 0.2985752818377181
465.50000000000006, 0.29805317731145964
466.0000000000001, 0.2973145366032468
466.50000000000006, 0.29673567245545485
467, 0.29640561356265227
467.49999999999994, 0.2962435131357001
468.00000000000006, 0.2959103812284918
468.50000000000006, 0.295232862928104
469.0000000000001, 0.2945698116355777
469.50000000000006, 0.29412791607921984
470.0000000000001, 0.2937387065611128
470.5000000000001, 0.2932910719630446
471.00000000000006, 0.2927862569927222
471.50000000000006, 0.29234113213341884
472, 0.2921188676490927
472.5000000000001, 0.2918956317058903
473.00000000000006, 0.29132264010026376
473.5000000000001, 0.29059321604441113
474, 0.2900397935739143
474.5000000000001, 0.28973474260944676
475.00000000000006, 0.28957924429687265
475.5, 0.2891951779377293
476.00000000000006, 0.2884811797568537
476.5000000000001, 0.28791283291050085
477.00000000000017, 0.2877063750255746
477.50000000000006, 0.28766770164828104
478.0000000000001, 0.28744676417966275
478.50000000000006, 0.2866550090262241
479, 0.28571549416254993
479.50000000000006, 0.2854107724973246
480, 0.285595422464032
480.5000000000001, 0.28576566795775604
481.0000000000001, 0.28555726422763583
481.5000000000001, 0.2848677472962551
482.00000000000006, 0.28425171371091984
482.5, 0.2840353734852965
483.0000000000001, 0.2838471077818615
483.50000000000017, 0.2834150558465669
484.00000000000006, 0.2827317013052202
484.50000000000017, 0.2820301442214105
485.00000000000006, 0.28170608267697017
485.50000000000006, 0.28152813750118133
486.00000000000006, 0.28094643948369447
486.50000000000017, 0.28023911979281557
487.00000000000006, 0.2799222267923369
487.50000000000017, 0.27977094537895153
488.00000000000006, 0.27942053983578496
488.50000000000006, 0.2788093477910023
489.00000000000006, 0.2780673491271638
489.50000000000017, 0.2776044057804452
489.99999999999994, 0.2774496847559764
490.50000000000017, 0.2770160029514136
491.00000000000017, 0.2762775002818356
491.50000000000017, 0.27582027487983796
492.00000000000017, 0.2756665825022109
492.50000000000017, 0.2754204726434879
493.00000000000006, 0.2748782567963939
493.50000000000017, 0.2740032478996979
494.00000000000006, 0.2731124153437121
494.50000000000006, 0.2725451602204625
495.00000000000017, 0.27227154900262684
495.50000000000006, 0.2721111295975117
496.00000000000006, 0.27172584205270245
496.50000000000017, 0.2710282903987786
497.00000000000006, 0.2703865761065857
497.50000000000006, 0.2699577842537698
498.00000000000006, 0.2695993825698718
498.50000000000017, 0.26914599831695973
499.00000000000017, 0.2684655031221046
499.50000000000017, 0.2677983709895122
500.00000000000006, 0.2674991116192731
500.50000000000006, 0.2673155390596126
501.00000000000006, 0.26689394258094723
501.50000000000017, 0.2664314798269002
502.00000000000006, 0.26607179061742725
502.50000000000017, 0.2654259444682139
503.00000000000017, 0.26443932104415047
503.50000000000006, 0.26383161054404103
504.00000000000017, 0.2636971459276346
504.50000000000006, 0.26325572398581687
505.00000000000017, 0.2625070856807541
505.50000000000006, 0.262130545155577
506.00000000000006, 0.26196955513082176
506.50000000000017, 0.26143546824022657
507.00000000000017, 0.2606927970576389
507.50000000000017, 0.26014641303698294
508.00000000000017, 0.2598041463118561
508.50000000000017, 0.2595681447945657
509.00000000000017, 0.2593679498920245
509.50000000000017, 0.2591525779977544
510.00000000000017, 0.2589017622812724
510.50000000000017, 0.2586595502423258
511.00000000000017, 0.2585421117851672
511.50000000000017, 0.2583513677025461
512.0000000000001, 0.257630529536645
512.5000000000001, 0.2566683893555284
513, 0.2561782961802406
513.5, 0.25609106396142356
514, 0.2559936805875018
514.5000000000001, 0.25564406713446
515.0000000000001, 0.2549744027087981
515.5000000000001, 0.2543202607773547
516.0000000000001, 0.25389057242779456
516.5, 0.2534110062604633
517.0000000000001, 0.2527346279298228
517.5, 0.25202379803271935
518, 0.2515535477117552
518.5, 0.2516314760261742
519.0000000000001, 0.2516679673479161
519.5, 0.2505905580011183
520, 0.24913982847966654
520.5000000000001, 0.24867820264321172
521.0000000000001, 0.24859962096896815
521.5000000000001, 0.247968030454643
522.0000000000001, 0.24728127333447159
522.5, 0.24703804109831184
523, 0.24687410810247024
523.5000000000001, 0.2464646374229934
524.0000000000001, 0.24578852193788814
524.5000000000001, 0.2448874308295126
525, 0.24385281496806765
525.5, 0.24295940095934643
526, 0.24257079275823212
526.5, 0.24241470701701529
527.0000000000001, 0.24197247754843776
527.5000000000001, 0.24154180630618183
528, 0.24154060683359435
528.5, 0.24151027322411212
529.0000000000001, 0.24105771371560347
529.5, 0.24063072130691432
530, 0.24046089498915701
530.5, 0.2400915676230415
531.0000000000002, 0.23938426956251113
531.5000000000001, 0.2387164640842837
532.0000000000001, 0.23829459043635126
532.5, 0.23811052543602595
533.0000000000001, 0.2378835674115386
533.5, 0.23725840420143107
534, 0.23657612821691287
534.5, 0.2363110736545171
535.0000000000001, 0.23610439682173945
535.5000000000001, 0.23560626560876563
536, 0.2352725568741364
536.5, 0.2353297989572889
537, 0.23518828484966403
537.5, 0.23452401433773318
538, 0.23355833436431217
538.5, 0.2326361172311473
539.0000000000002, 0.23214792505584514
539.5000000000001, 0.23200514740248201
540.0000000000001, 0.2318220178128143
540.5000000000001, 0.2315800043323818
541, 0.23139545112662663
541.5000000000001, 0.23112799407163354
542, 0.23066103607165434
542.5, 0.2302605816062283
543.0000000000001, 0.2300721351656395
543.5000000000001, 0.22976427639266972
544, 0.22926243956320203
544.5000000000001, 0.22900331452203182
545.0000000000001, 0.22905081768456315
545.5, 0.22901491883819403
546, 0.22875123267951325
546.5, 0.2283315887172539
547.0000000000001, 0.22787400436832117
547.5, 0.22747605705278917
548.0000000000001, 0.22698310666653654
548.5000000000001, 0.22626856675685625
549, 0.22568036117964851
549.5000000000001, 0.22545562932790608
550, 0.2252393354849649
550.5, 0.22479674051063114
551.0000000000001, 0.22427716292080757
551.5000000000001, 0.2238214586405083
552.0000000000001, 0.22349423122781165
552.5000000000001, 0.223059368034487
553.0000000000001, 0.22209529113002047
553.5, 0.22091661054839395
554.0000000000001, 0.22018653193239568
554.5, 0.21992306699961917
555.0000000000002, 0.21983324101584123
555.5000000000001, 0.21942977269716035
556.0000000000001, 0.21848957608260178
556.5000000000001, 0.2177096351893446
557, 0.2174925669771638
557.5000000000001, 0.2173372857295075
558, 0.21690049134964706
558.5, 0.21620805349881111
559.0000000000001, 0.2155093893347988
559.5000000000001, 0.21518934476087903
560.0000000000001, 0.2150097439559291
560.5000000000001, 0.21442621737835743
561, 0.21371960157066994
561.5, 0.2134007338660575
562, 0.21325429836277254
562.5, 0.21299669104544117
563.0000000000001, 0.21284419108164587
563.5000000000001, 0.2128930551882915
564.0000000000001, 0.2127611399969298
564.5000000000001, 0.21229730865321117
565.0000000000001, 0.21178541620942426
565.5000000000001, 0.21135041970437318
566, 0.2109175773862939
566.5000000000001, 0.21046681967741532
567, 0.21002131881945285
567.5000000000001, 0.20957424609529895
568.0000000000001, 0.20911330655234384
568.5, 0.2086819317587253
569.0000000000001, 0.20828933681211326
569.5, 0.2077523909566823
570, 0.20702604264501578
570.5000000000001, 0.20650125455878454
571.0000000000001, 0.20630953895410264
571.5000000000002, 0.20605369612620428
572.0000000000001, 0.205583586442195
572.5, 0.20508493030042496
573, 0.20464848929939738
573.5, 0.20426124277955482
574, 0.20379093279107052
574.5000000000001, 0.2031043343520681
575.0000000000002, 0.20246104496140416
575.5000000000001, 0.20215637333167513
576.0000000000001, 0.20202608078438333
576.5000000000001, 0.2018431076308438
577.0000000000001, 0.2015251621456391
577.5, 0.20107618189690601
578, 0.20061173480512062
578.5, 0.20017317512339883
579, 0.1996989132289162
579.5000000000001, 0.19924554906981717
580.0000000000001, 0.19895954959687268
580.5, 0.19876079887975706
581.0000000000001, 0.19844362050735986
581.5, 0.19791305253774916
582, 0.19718939141856406
582.5, 0.1965990331779044
583, 0.19636640150067874
583.5000000000002, 0.19615206659606632
584.0000000000001, 0.19571243989020182
584.5000000000001, 0.19521028159487053
585.0000000000001, 0.19476326572587832
585.5000000000001, 0.1943548156265099
586.0000000000001, 0.19391375816584144
586.5, 0.19333527092320746
587.0000000000001, 0.1926376365183341
587.5, 0.19192233411712922
588.0000000000001, 0.19127912062658603
588.5000000000001, 0.19077372005179583
589.0000000000001, 0.19038189429942254
589.5, 0.1900866493534028
590, 0.18998932253465206
590.5, 0.19005254258306836
591, 0.1898774649969438
591.5000000000001, 0.18938309434720235
592.0000000000001, 0.18903770249884877
592.5000000000001, 0.18886666973662236
593, 0.18840331235818075
593.5, 0.18767159976783587
594, 0.1870538085928133
594.5, 0.18668725631552363
595, 0.18652627940545463
595.5000000000001, 0.18623446563165102
596.0000000000001, 0.1855570902336907
596.5, 0.1849238918809898
597.0000000000001, 0.18467486894780738
597.5000000000001, 0.1845292453944788
598, 0.18429479330522391
598.5, 0.18408784420212432
599.0000000000001, 0.18388787872991974
599.5000000000001, 0.18349543474757912
600.0000000000001, 0.18302006101051893
600.5000000000001, 0.18278166127165218
601.0000000000001, 0.18256733806793146
601.5000000000001, 0.18196536928556883
602.0000000000001, 0.18126496522064184
602.5, 0.18091011995859207
603.0000000000001, 0.18084202762251955
603.5000000000001, 0.18087038157974888
604.0000000000001, 0.18080543722860065
604.5000000000001, 0.18057745972458006
605, 0.18033545582732413
605.5, 0.17995673610020135
606, 0.17897599632624495
606.5000000000001, 0.1777664590858543
607.0000000000001, 0.1773698096066222
607.5000000000001, 0.17751752216354144
608, 0.177249827327835
608.5000000000001, 0.17670769340346615
609.0000000000001, 0.17639541367596845
609.5000000000001, 0.17625785589789755
610, 0.1760935705197203
610.5, 0.175755266622597
611.0000000000001, 0.17526175356637064
611.5000000000002, 0.17495204678936005
612.0000000000001, 0.17496185538585218
612.5, 0.17507725968006005
613, 0.17508311119125042
613.5, 0.17480791035199583
614.0000000000001, 0.17431038579657498
614.5, 0.17379769097195585
615.0000000000001, 0.173387102172754
615.5000000000002, 0.17312619659854878
616.0000000000001, 0.17293263037370676
616.5, 0.17271356022099582
617.0000000000001, 0.17248511553832946
617.5000000000001, 0.17226660124063098
618.0000000000001, 0.17203105953397535
618.5, 0.17179302857355394
619.0000000000001, 0.17163591137755319
619.5000000000001, 0.1714432385995731
620.0000000000001, 0.17090329493552914
620.5000000000001, 0.1701834776433927
621.0000000000001, 0.16977073160367384
621.5, 0.1696307774327267
622.0000000000001, 0.16947673940686048
622.5000000000001, 0.1691964842038497
623, 0.1687720127868939
623.5000000000001, 0.16830059182355128
624.0000000000001, 0.16785906764690783
624.5000000000001, 0.16740132039731104
625.0000000000001, 0.1669322212191059
625.5000000000001, 0.16657710739521236
626.0000000000001, 0.16636481506133816
626.5000000000001, 0.16619260681738768
627, 0.16596582738896581
627.5000000000001, 0.1656108205451461
628.0000000000001, 0.16513018938794588
628.5, 0.16459352368755442
629.0000000000001, 0.1642171212035941
629.5000000000001, 0.1641751881369763
630.0000000000001, 0.16420791371904808
630.5000000000001, 0.16404170453292932
631, 0.1636975421528014
631.5000000000001, 0.16325200616168634
632.0000000000001, 0.16278703086283464
632.5000000000001, 0.16234229848486748
633.0000000000001, 0.16190054235083984
633.5000000000001, 0.16145330260061352
634.0000000000001, 0.16100420937344972
634.5, 0.16055846632445814
635.0000000000001, 0.1601191142221613
635.5000000000001, 0.15966794200736223
636, 0.15919554817996662
636.5000000000001, 0.1587805289572598
637, 0.15842467597213028
637.5, 0.1578025492724594
638, 0.1568398363614829
638.5, 0.15613339817848138
639.0000000000001, 0.15593130655654952
639.5000000000001, 0.1558441960581467
640.0000000000001, 0.15561655704050148
640.5000000000001, 0.15519805536256348
641.0000000000001, 0.1547355227969055
641.5000000000001, 0.1544666073464399
642, 0.15426301576236456
642.5000000000001, 0.1538753691302872
643, 0.15338448759221124
643.5000000000001, 0.15293335481678128
644.0000000000001, 0.15249146519127876
644.5000000000001, 0.1520310658227665
645.0000000000001, 0.1516230299959167
645.5000000000001, 0.15136332974886813
646, 0.1513553040998129
646.5, 0.1514074924360359
647.0000000000001, 0.1510289491286212
647.5000000000001, 0.15027971023532238
648, 0.149636551296647
648.5000000000001, 0.14927355274529752
649.0000000000001, 0.14917762353399233
649.5, 0.14924632826367656
650, 0.14932843466018408
650.5, 0.14920875961411784
651, 0.14878351943723755
651.5, 0.1482843187755828
652.0000000000001, 0.14785200036722934
652.5, 0.1473700770884907
653, 0.14688947483809722
653.5000000000001, 0.14668689726528417
654.0000000000001, 0.14673404420999359
654.5, 0.14672978962830863
655, 0.14643170509690884
655.5000000000001, 0.145726867298705
656.0000000000001, 0.14510021704934084
656.5000000000002, 0.14505405268056037
657.0000000000001, 0.14507013776876487
657.5000000000001, 0.14464674360398544
658.0000000000001, 0.14416364091369327
658.5, 0.14392871536816942
659, 0.14378515531216862
659.5, 0.1435757130453662
660, 0.14322334553011462
660.5000000000002, 0.14275857735850828
661.0000000000001, 0.14230063363333068
661.5000000000001, 0.14185930604410324
662.0000000000001, 0.14138543548757299
662.5, 0.14095686115789796
663.0000000000001, 0.14067946385800312
663.5, 0.1405056387368976
664.0000000000002, 0.14033065535304168
664.5000000000001, 0.140019103484735
665.0000000000001, 0.13954917195512895
665.5, 0.13916097397469096
666.0000000000001, 0.13895016001932747
666.5000000000001, 0.138745403274799
667, 0.1385093763770172
667.5, 0.13836681288812747
668.0000000000001, 0.13839802222815945
668.5000000000001, 0.13859281611980612
669.0000000000001, 0.13849438906413214
669.5000000000001, 0.13763648249961113
670.0000000000001, 0.13675923214981323
670.5, 0.1366542236842715
671.0000000000001, 0.13677432035453152
671.5, 0.1365758975366107
672.0000000000001, 0.13627480586800755
672.5000000000001, 0.136053816035398
673.0000000000001, 0.13584980930592916
673.5000000000001, 0.13562429484256822
674.0000000000001, 0.1353944402117876
674.5000000000001, 0.1351721805988758
675.0000000000001, 0.13495983747639673
675.5, 0.13473238430665013
676.0000000000001, 0.13447003925191048
676.5, 0.1342806916276138
677.0000000000001, 0.1342629362021296
677.5, 0.13427632189177785
678, 0.13413808654147574
678.5000000000001, 0.13371841091013748
679.0000000000001, 0.1330358851091743
679.5000000000001, 0.13236520095192839
680.0000000000001, 0.1319060890041539
680.5000000000001, 0.1317204354571785
681.0000000000001, 0.13175340372645117
681.5, 0.13185047101573077
682.0000000000001, 0.13182108259802439
682.5000000000001, 0.13149431820907231
683, 0.13097807673710005
683.5, 0.1304770185165326
684.0000000000001, 0.1300940440433902
684.5000000000001, 0.1298573192131638
685, 0.1296572800933682
685.5, 0.12942498179893924
686.0000000000001, 0.1292259667836554
686.5, 0.1290295014963494
687, 0.1286566482509398
687.5, 0.12817827282586725
688.0000000000001, 0.12789133801734265
688.5000000000001, 0.12769619434640622
689.0000000000001, 0.12727764518309603
689.5000000000001, 0.12682257358151916
690.0000000000001, 0.1266309716954328
690.5000000000001, 0.12635394166850622
691, 0.12566944856917983
691.5, 0.12504765010639063
692.0000000000002, 0.1248215645754055
692.5000000000001, 0.12463384526913357
693.0000000000001, 0.1242093532469476
693.5000000000001, 0.1235562582148716
694.0000000000001, 0.12285485599305035
694.5000000000001, 0.12242338751342985
695.0000000000001, 0.12225547224292
695.5000000000001, 0.12210651938054351
696.0000000000001, 0.12184888770021607
696.5000000000001, 0.12144129367042211
697.0000000000001, 0.12096792028180803
697.5000000000001, 0.12052306728676043
698, 0.120071575361409
698.5000000000001, 0.11959892842929976
699.0000000000001, 0.11921911912350358
699.5000000000001, 0.11898944145787482
700.0000000000001, 0.1188337578079578
700.5000000000001, 0.11862783760808882
701.0000000000001, 0.11822232824823986
701.5000000000001, 0.11774923248565206
702.0000000000001, 0.11752220578727057
702.5, 0.11730433022817999
703.0000000000001, 0.11666441675582828
703.5000000000001, 0.11599583936653923
704.0000000000001, 0.1158438310917308
704.5000000000001, 0.11601187056495998
705.0000000000001, 0.1161266455308666
705.5, 0.1158711510695628
706.0000000000001, 0.11518818435955147
706.5000000000001, 0.11449236158779108
707.0000000000001, 0.11404106094151623
707.5000000000001, 0.11380693410114384
708.0000000000001, 0.11360567278136657
708.5000000000001, 0.11316846019617655
709.0000000000001, 0.11270913928523585
709.5000000000001, 0.11265000188156471
710.0000000000001, 0.11267145164340131
710.5, 0.11229032750445411
711.0000000000001, 0.11179841395394063
711.5000000000001, 0.11154832145811766
712, 0.11136765098683898
712.5000000000002, 0.11112096373980218
713.0000000000001, 0.11096478041014024
713.5000000000001, 0.11096944658225572
714, 0.11102651760849569
714.5000000000001, 0.11102953580654507
715, 0.11089613305184876
715.5, 0.11064720175736809
716, 0.11037614518242866
716.5000000000001, 0.11017881108267624
717.0000000000001, 0.11012777524364648
717.5000000000001, 0.11017036200162023
718.0000000000001, 0.11021023604896185
718.5000000000001, 0.11014266166550923
719.0000000000001, 0.10992684051575685
719.5000000000001, 0.10967498980140555
720.0000000000001, 0.10945505265471656
720.5000000000002, 0.10923036831166721
721.0000000000001, 0.10900191364742873
721.5000000000001, 0.1088150652799289
722.0000000000001, 0.10859244458136719
722.5000000000001, 0.10818827296101974
723, 0.107723913178696
723.5000000000001, 0.10742305924388984
724, 0.10725643517224293
724.5000000000002, 0.1070945330814358
725.0000000000001, 0.10678043229447287
725.5000000000001, 0.10628886397557591
726.0000000000001, 0.10595185424157771
726.5000000000001, 0.10594375036097359
727, 0.10605815377580197
727.5000000000001, 0.10607842483640384
728, 0.10583413229549377
728.5000000000002, 0.10534707074711847
729.0000000000001, 0.10480207422443844
729.5, 0.10438979478420918
730.0000000000001, 0.1042651734300788
730.5000000000001, 0.10434410975697117
731.0000000000001, 0.10443681886565281
731.5, 0.10431699849607567
732.0000000000001, 0.10388236001745521
732.5000000000002, 0.10341709371042851
733.0000000000001, 0.10315635037307802
733.5000000000001, 0.10310046256333849
734.0000000000001, 0.10312881184574396
734.5, 0.10300631029952112
735.0000000000001, 0.10275312534975567
735.5, 0.10262143575592353
736, 0.1026628075570496
736.5000000000002, 0.10277190880960851
737.0000000000002, 0.10270275851485589
737.5000000000001, 0.10226402056936079
738.0000000000001, 0.10183428666282046
738.5000000000001, 0.10177942014670871
739.0000000000001, 0.10186599890313663
739.5000000000001, 0.10186987115206436
740, 0.10184826736339803
740.5000000000002, 0.10184964927067397
741.0000000000001, 0.10185474079058743
741.5000000000001, 0.10185385141868564
742.0000000000001, 0.1018527237285135
742.5000000000001, 0.10185306650464132
743.0000000000001, 0.101853297982055
743.5, 0.10185318741940863
744, 0.10185314467210049
744.5000000000002, 0.10185317682780737
745.0000000000001, 0.10185318345889549
745.5000000000001, 0.10185317479305223
746.0000000000001, 0.10185317413809647
746.5000000000001, 0.10185317633407143
747, 0.10185317625678858
747.5000000000001, 0.10185317573114883
748, 0.10185317580677544
748.5000000000001, 0.10185317592526566
749.0000000000001, 0.10185317589371923
749.5000000000001, 0.10185317586884424
750.0000000000001, 0.10185317587940013
750.5000000000001, 0.10185317588414655
751, 0.1018531758810014
751.5000000000001, 0.10185317588022269
752.0000000000001, 0.10185317588108389
752.5, 0.10185317588117104
753.0000000000001, 0.10185317588096232
753.5000000000001, 0.10185317588098097
754.0000000000002, 0.10185317588097065
754.5000000000002, 0.10185317588092246
755.0000000000001, 0.10185317588119636
755.5, 0.10185317588124476
756, 0.1018531758800496
756.5000000000001, 0.10185317588039233
757.0000000000001, 0.10185317588512544
757.5000000000001, 0.1018531758815635
758.0000000000001, 0.10185317586396936
758.5, 0.10185317588707399
759.0000000000001, 0.10185317594770182
759.5000000000001, 0.1018531758221749
760.0000000000001, 0.10185317563360985
760.5000000000001, 0.10185317624649814
761.0000000000001, 0.10185317673890504
761.5000000000001, 0.10185317396698601
762.0000000000001, 0.1018531731815604
762.5000000000001, 0.10185318496048001
763, 0.10185318298095802
763.5000000000001, 0.1018531357079212
764.0000000000001, 0.10185316509396902
764.5000000000002, 0.10185334388901046
765.0000000000001, 0.10185313855443312
765.5000000000002, 0.10185250853011896
766.0000000000001, 0.10185366710089672
766.5, 0.10185568946730084
767, 0.10184989103825937
767.5, 0.10184428317687788
768.0000000000001, 0.10187100264638604
768.5000000000001, 0.10188203447033928
769.0000000000001, 0.10175190347292973
769.5000000000001, 0.10150267213510844
770, 0.10125811853234257
770.5000000000001, 0.10104486377174426
771, 0.1008367210475758
771.5000000000001, 0.10059942053953674
772.0000000000001, 0.1003337007256736
772.5000000000001, 0.10017984193001084
773.0000000000001, 0.10019605708305124
773.5000000000001, 0.10015834445087857
774.0000000000001, 0.09993876812645774
774.5, 0.09964551796242183
775, 0.09940961938394588
775.5000000000001, 0.0993493770314362
776, 0.09937332053141323
776.5, 0.09924429960877679
777.0000000000001, 0.09898305994384293
777.5000000000001, 0.09873901717382538
778.0000000000001, 0.09852979575011567
778.5000000000002, 0.09832106107828342
779, 0.09807810074002155
779.5, 0.09781544447716972
780, 0.09768231324895849
780.5000000000001, 0.09770607408432275
781.0000000000001, 0.09764681258755692
781.5000000000002, 0.09741147785724003
782.0000000000001, 0.0971336709751317
782.5000000000001, 0.0969138007821937
783.0000000000001, 0.09680635925529235
783.5, 0.0968410322735066
784.0000000000001, 0.09698665677127405
784.5, 0.09688456866830242
785.0000000000002, 0.0962254156815141
785.5000000000001, 0.09558207680768993
786.0000000000001, 0.09549850961626793
786.5000000000001, 0.0956456790409198
787, 0.0956768757298565
787.5000000000001, 0.09555648430357422
788.0000000000001, 0.09532669071972588
788.5, 0.09508305619636104
789.0000000000002, 0.0948635687302537
789.5000000000001, 0.09464581687879214
790.0000000000001, 0.09442103277719704
790.5, 0.09419274347643236
791.0000000000001, 0.09397242323403321
791.5, 0.09376521648535963
792, 0.09352435834974393
792.5000000000001, 0.09324493915373044
793.0000000000001, 0.0931221255787682
793.5000000000001, 0.09318850445190696
794.0000000000002, 0.09301048974088111
794.5000000000001, 0.0925035800282814
795.0000000000001, 0.09222009221363137
795.5000000000001, 0.09227225994880839
796.0000000000001, 0.09224509476363973
796.5000000000001, 0.09197800907908937
797.0000000000001, 0.09153715868269086
797.5000000000002, 0.09108921249973323
798.0000000000001, 0.09080886864840398
798.5000000000001, 0.09062579233250456
799.0000000000001, 0.09041445899756129
799.5000000000001, 0.09017599988495739
800.0000000000001, 0.0899422467258495
800.5000000000001, 0.08974519447517226
801.0000000000001, 0.0895500121656867
801.5000000000001, 0.08921035246020481
802.0000000000001, 0.08873996110346671
802.5000000000001, 0.08835322234801757
803.0000000000001, 0.08815575094771044
803.5, 0.08813733957821412
804, 0.08814586452430295
804.5000000000001, 0.08798744644011791
805.0000000000001, 0.08772423445453581
805.5000000000001, 0.0874891620117827
806.0000000000001, 0.08727835887682445
806.5000000000001, 0.08705990980666611
807.0000000000001, 0.08682646182006293
807.5, 0.08659288281763289
808.0000000000001, 0.08640594400411761
808.5000000000001, 0.08620879402950044
809.0000000000002, 0.08581631319584926
809.5000000000001, 0.08533670668885962
810.0000000000001, 0.08512880350130247
810.5000000000001, 0.08519769904051422
811.0000000000001, 0.08531273367093517
811.5, 0.085239383530051
812.0000000000001, 0.08483126340452463
812.5, 0.08436297640776302
813.0000000000001, 0.08410773780151959
813.5000000000002, 0.08393699433082225
814.0000000000001, 0.08371763655843867
814.5000000000001, 0.08347610987642695
815.0000000000001, 0.08324883863857002
815.5000000000001, 0.08305387265804087
816.0000000000001, 0.08283906499106108
816.5000000000001, 0.0824909585862208
817.0000000000001, 0.08201697581657286
817.5000000000002, 0.08151478984713145
818.0000000000001, 0.08109796461222274
818.5000000000001, 0.0808482773077932
819.0000000000001, 0.08064083002968514
819.5000000000001, 0.08036889493295007
820, 0.08023227244710895
820.5, 0.08029339448702366
821.0000000000001, 0.08013443414913546
821.5000000000001, 0.07964132307011795
822.0000000000001, 0.07928941768057896
822.5, 0.07912046434863562
823.0000000000001, 0.07865914197990154
823.5000000000001, 0.07792850747012603
824.0000000000001, 0.07733130581553738
824.5, 0.0769494147829779
825.0000000000002, 0.07668972477650027
825.5000000000001, 0.07649300996577901
826.0000000000001, 0.07630392431399602
826.5000000000001, 0.07603031631506074
827.0000000000001, 0.07561195166578949
827.5000000000001, 0.07509708233887857
828.0000000000001, 0.0746055301983124
828.5, 0.07434876027503867
829.0000000000002, 0.0743666706839693
829.5000000000001, 0.07447361926197449
830, 0.07446966881890404
830.5000000000001, 0.07417836692660296
831.0000000000001, 0.07367439718330027
831.5000000000001, 0.07316771997655691
832, 0.07276302446038196
832.5000000000001, 0.07249911317467395
833.0000000000001, 0.0723190947500224
833.5000000000002, 0.07213294025120287
834.0000000000001, 0.07183132533758696
834.5000000000001, 0.07138352680221793
835.0000000000001, 0.07091942550515817
835.5000000000001, 0.07048471231148379
836, 0.0699923616092274
836.5000000000001, 0.06953071324889937
837, 0.06934252832040722
837.5000000000001, 0.06940220322442847
838.0000000000001, 0.06950228067253017
838.5000000000001, 0.06944166952391861
839.0000000000001, 0.0690805092570419
839.5000000000001, 0.06855900503674961
840.0000000000001, 0.06807043283872638
840.5000000000001, 0.06769990367315881
841.0000000000001, 0.06746558529763891
841.5000000000001, 0.06728706079873248
842.0000000000001, 0.06707789350569826
842.5000000000001, 0.06676386992125682
843.0000000000001, 0.06630984304901555
843.5000000000001, 0.06573761235947373
844.0000000000001, 0.06530496142688202
844.5000000000001, 0.06534039555040594
845, 0.06531524562219249
845.5000000000001, 0.06451334700572098
846.0000000000001, 0.06358661794776299
846.5000000000002, 0.06330241448548979
847.0000000000001, 0.0631366680842903
847.5000000000001, 0.06264704514503083
848.0000000000001, 0.062302658461328764
848.5000000000001, 0.06232963714787687
849.0000000000001, 0.06232914149902946
849.5000000000001, 0.06209319946581782
850.0000000000001, 0.06170342118798822
850.5000000000001, 0.06124370210814856
851.0000000000001, 0.06078208409522923
851.5000000000001, 0.06034189419399294
852.0000000000001, 0.05991496367742455
852.5, 0.05945191677458339
853, 0.05894130618197346
853.5000000000001, 0.058589442126941726
854.0000000000001, 0.058544659478738326
854.5000000000001, 0.058648065548908
855.0000000000001, 0.0586952145248415
855.5000000000001, 0.05849716092096846
856.0000000000001, 0.05803361622812786
856.5, 0.05749598860990379
857, 0.05705329879686949
857.5000000000001, 0.056815874751781736
858.0000000000002, 0.0566026228008395
858.5000000000001, 0.05613621449530626
859.0000000000001, 0.05571611298314294
859.5000000000001, 0.055710837107673994
860.0000000000001, 0.055686409394388736
860.5, 0.055247072369835726
861, 0.05479915125209989
861.5000000000002, 0.054603653635500904
862.0000000000002, 0.05432373945820901
862.5000000000001, 0.053845936900790536
863.0000000000001, 0.053463702131882784
863.5, 0.05326561010104747
864.0000000000001, 0.05311049891733477
864.5, 0.05287130086721503
865, 0.052462716455054514
865.5000000000001, 0.05199904204867667
866.0000000000002, 0.05166750636171191
866.5000000000001, 0.05155005972965654
867.0000000000001, 0.051606259285067235
867.5000000000001, 0.05149772162325028
868.0000000000001, 0.051048224283710586
868.5000000000001, 0.05058717634694643
869, 0.050347465471276553
869.5000000000002, 0.05030108386780574
870.0000000000001, 0.05032172539755264
870.5000000000001, 0.05021360289330146
871.0000000000001, 0.04996033904193142
871.5000000000001, 0.04968189591089289
872.0000000000001, 0.049484756058971735
872.5000000000001, 0.04944051281677375
873.0000000000001, 0.04947210465562757
873.5000000000001, 0.049479117518294924
874.0000000000001, 0.04947054339165835
874.5000000000001, 0.049469789907852335
875.0000000000001, 0.049471975827192316
875.5, 0.04947192331451189
876.0000000000001, 0.04947139695893321
876.5000000000001, 0.04947146655157186
877.0000000000001, 0.04947158598959478
877.5000000000001, 0.049471555853878635
878.0000000000001, 0.04947153057197218
878.5000000000001, 0.04947154081726013
879.0000000000001, 0.04947154569958512
879.5000000000001, 0.04947154261515596
880.0000000000002, 0.049471541792333484
880.5000000000001, 0.049471542651497336
881, 0.049471542769335186
881.5000000000001, 0.049471542515347355
882.0000000000001, 0.04947154246904306
882.5000000000001, 0.04947154268216014
883.0000000000002, 0.04947154278947352
883.5000000000001, 0.04947154206529236
884.0000000000001, 0.04947154192106862
884.5000000000001, 0.04947154491933481
885.0000000000001, 0.04947154419698607
885.5000000000001, 0.04947153228670398
886.0000000000001, 0.049471540637013534
886.5000000000001, 0.04947158520896311
887.0000000000002, 0.04947152958795775
887.5, 0.04947137463288853
888, 0.04947168109079714
888.5000000000001, 0.04947216919724329
889.0000000000001, 0.04947065890770319
889.5000000000001, 0.0494693521476709
890.0000000000002, 0.04947623151591951
890.5000000000002, 0.04947852154502741
891.0000000000001, 0.04944910916917866
891.5000000000002, 0.049452699967140856
892.0000000000001, 0.04960110367029047
892.5000000000001, 0.04986181636083431
893.0000000000001, 0.050131837103065235
893.5000000000002, 0.05030771256142963
894.0000000000002, 0.05033093147666157
894.5000000000001, 0.05029870170488526
895.0000000000001, 0.050296589505951506
895.5000000000001, 0.050304751558583716
896.0000000000001, 0.050304427819482855
896.5, 0.050302311917349685
897.0000000000001, 0.050302525567264667
897.5000000000002, 0.05030374802966464
898.0000000000001, 0.05030362487546436
898.5000000000001, 0.05030030049116019
899.0000000000002, 0.050301789777295824
899.5000000000001, 0.050314321561855446
900.0000000000001, 0.05030256801407973
900.5000000000002, 0.050257194044541764
901.0000000000001, 0.050327947233252845
901.5, 0.05057648573732654
902.0000000000001, 0.05073957494927417
902.5000000000001, 0.05071466200978969
903.0000000000001, 0.050768260597079284
903.5000000000001, 0.051006151114350584
904.0000000000001, 0.051292998528021716
904.5000000000001, 0.05151133019387888
905.0000000000001, 0.05158341604876704
905.5000000000001, 0.05155595355055409
906.0000000000001, 0.05153621788617646
906.5000000000002, 0.05154946057411969
907.0000000000001, 0.051575242725571346
907.5000000000001, 0.05154073225623701
908.0000000000001, 0.05146005884051985
908.5000000000001, 0.051635770397122416
909.0000000000001, 0.05213159805251166
909.5, 0.052453801336346695
910.0000000000001, 0.05242432062278968
910.5000000000001, 0.05236573718954429
911.0000000000001, 0.05238232278880062
911.5000000000001, 0.052356163200974914
912.0000000000002, 0.05235953330913401
912.5000000000001, 0.052553066562699424
913.0000000000001, 0.05278780249218429
913.5000000000001, 0.05283925977749948
914.0000000000001, 0.052794749651323136
914.5000000000001, 0.05278792401795618
915.0000000000001, 0.05279863713530397
915.5000000000001, 0.052797293184476124
916.0000000000002, 0.052799880059781645
916.5000000000001, 0.05280511528771292
917.0000000000001, 0.052780462524293026
917.5000000000001, 0.052770990723080224
918.0000000000001, 0.05289536967917319
918.5000000000001, 0.05314597801246923
919.0000000000001, 0.053421291847359886
919.5000000000002, 0.05361751799758585
920.0000000000001, 0.05365952925489703
920.5000000000001, 0.05362787057289775
921.0000000000001, 0.05362295194816413
921.5000000000001, 0.05362882808396996
922.0000000000001, 0.05362411804617617
922.5000000000001, 0.05363606917513908
923.0000000000001, 0.05365148308367651
923.5000000000001, 0.05358598331581854
924.0000000000001, 0.05355273525318893
924.5000000000002, 0.053866911762531666
925.0000000000001, 0.054364612644044796
925.5, 0.05454970805850312
926, 0.05447176081299587
926.5, 0.0544378223766826
927, 0.05446027636106865
927.5, 0.05446286938394873
928.0000000000002, 0.05446117211633239
928.5000000000002, 0.054470941614390145
929.0000000000002, 0.05444807513783423
929.5000000000003, 0.05441680544747973
930.0000000000002, 0.054537761246736594
930.5000000000002, 0.05479004836888157
931.0000000000001, 0.054919062726129564
931.5000000000001, 0.05489038233425092
932.0000000000002, 0.05486386082869654
932.5000000000001, 0.054873903072999
933, 0.0548796961099387
933.5000000000001, 0.054876170148532744
934.0000000000001, 0.05487297290645621
934.5000000000001, 0.054876879570451176
935.0000000000001, 0.05488493845097786
935.5, 0.054868164704239275
936.0000000000001, 0.05484351462273873
936.5000000000002, 0.05492769342625081
937.0000000000002, 0.05515608828429863
937.5000000000002, 0.05543478623181908
938.0000000000001, 0.055660346372585656
938.5000000000001, 0.055740091367119105
939, 0.05571425216811865
939.5000000000001, 0.05569876629119852
940.0000000000002, 0.05570687552753373
940.5000000000001, 0.055709553660896693
941.0000000000001, 0.05570735404583471
941.5000000000001, 0.05570731788822736
942.0000000000001, 0.05570724534268068
942.5000000000001, 0.05570608322540904
942.9999999999999, 0.05570937599203207
943.5, 0.05571268509138916
944.0000000000002, 0.0556968538065048
944.5000000000002, 0.055690417081719956
945.0000000000001, 0.05577377816421858
945.5000000000001, 0.05602576908770285
946, 0.056489461790100726
946.5000000000002, 0.05692485544774861
947.0000000000001, 0.05702870713169783
947.5000000000001, 0.056952898393293205
948, 0.056936591226545374
948.5000000000001, 0.05695710419634936
949.0000000000002, 0.05695879981682572
949.5000000000002, 0.05695357722757799
950, 0.05695371980789854
950.5000000000001, 0.056955005248127355
951.0000000000001, 0.05695485105557496
951.5, 0.056954423887229266
952.0000000000001, 0.05695448795021529
952.5000000000002, 0.05695514190622164
953.0000000000002, 0.05695489100421891
953.5000000000002, 0.05695255984442116
954.0000000000001, 0.05695456052544845
954.5000000000002, 0.05696306209402169
955, 0.05695072713765037
955.5000000000002, 0.056921978619371094
956.0000000000001, 0.05698845066881686
956.5, 0.05720457155425984
957.0000000000002, 0.05748398821077649
957.5, 0.05772134989685607
958, 0.05781364108927667
958.5, 0.057792244078873956
958.9999999999999, 0.05779478818047856
959.5, 0.05779620644822536
960.0000000000001, 0.057712028862555886
960.5000000000002, 0.05777350012325577
961.0000000000002, 0.058212891373065956
961.5000000000001, 0.05864112940119559
962.0000000000002, 0.05869052196937463
962.5000000000002, 0.058603881658447876
963.0000000000001, 0.05860196316508037
963.5000000000001, 0.058621436451961495
964.0000000000001, 0.05861799650284505
964.5000000000002, 0.05862242643795357
965, 0.05862633626230662
965.5000000000002, 0.0585870580297454
966, 0.058592432789894455
966.5, 0.058785211045999874
967.0000000000001, 0.05902052216638687
967.4999999999999, 0.059075235192696196
968, 0.05903137043359197
968.5000000000002, 0.05902395714767761
969.0000000000002, 0.059034278978249755
969.5000000000001, 0.059032345900082994
970.0000000000001, 0.05903674865471353
970.5000000000002, 0.059044299189601746
971, 0.05901091483940679
971.5000000000002, 0.05899573058898877
972.0000000000002, 0.05915746442555403
972.5000000000001, 0.05940554274318377
973.0000000000002, 0.05948868583087352
973.5, 0.059451852468690225
974, 0.05945907504261172
974.5000000000001, 0.05944786841573735
975.0000000000001, 0.059364565062739905
975.5, 0.05949827306302202
976.0000000000001, 0.05998094980283408
976.5000000000001, 0.06034224710967295
977.0000000000002, 0.060335551760792194
977.5000000000001, 0.06025985352844376
978.0000000000002, 0.06026993340970488
978.5000000000001, 0.060285255415956085
979.0000000000001, 0.06028076133586502
979.5000000000001, 0.060285348640693126
980.0000000000002, 0.060283949551674376
980.5, 0.06025227187387283
981.0000000000001, 0.0602784131512516
981.5, 0.06045813276586698
982.0000000000001, 0.06072940421703166
982.5, 0.06098841616416373
983, 0.0611324165251379
983.5, 0.061133384581470884
983.9999999999999, 0.06110463396907673
984.5000000000003, 0.06110749302813512
985.0000000000002, 0.06111413791293563
985.5000000000002, 0.06111271446603728
986.0000000000001, 0.06111127609914524
986.5000000000001, 0.06111178589572297
987.0000000000001, 0.06111207230126048
987.5000000000003, 0.06111191410460648
988.0000000000001, 0.06111186365892962
988.5000000000002, 0.06111190837478009
989.0000000000001, 0.0611119153622246
989.5000000000001, 0.06111190385784904
990.0000000000002, 0.06111190390678334
990.5, 0.061111905327416394
991.0000000000001, 0.061111903781237764
991.5000000000001, 0.06111191001313676
992.0000000000001, 0.061111912540907976
992.5000000000002, 0.06111188304811188
993.0000000000002, 0.06111188623278285
993.5000000000003, 0.06111200608474965
994.0000000000001, 0.06111193914336144
994.5000000000001, 0.061111481929411515
995.0000000000001, 0.061111971524198005
995.4999999999999, 0.06111359968037411
995.9999999999999, 0.06111077875469706
996.4999999999999, 0.06110547679375944
997.0000000000001, 0.061119782867171235
997.5000000000001, 0.06113486227193454
998.0000000000001, 0.06106218145866449
998.5000000000001, 0.06083762419828098
998.9999999999999, 0.06043982796456615
999.5000000000001, 0.059974843621728446
999.9999999999999, 0.05963167071801734
1000.4999999999999, 0.059460151848573006
1000.9999999999999, 0.05942585094643127
1001.5000000000001, 0.059449129406636825
1001.9999999999999, 0.05945467715392727
1002.5000000000001, 0.05944831336559764
1002.9999999999999, 0.05944767414924812
1003.5000000000001, 0.05944930707655238
1004.0000000000001, 0.05944928691816376
1004.4999999999999, 0.05944888862283371
1004.9999999999999, 0.05944893453784261
1005.5000000000001, 0.05944903771351706
1005.9999999999999, 0.05944901784137868
1006.5000000000001, 0.05944894490817443
1006.9999999999999, 0.05944896920886955
1007.4999999999999, 0.05944918431322088
1008.0000000000001, 0.05944901658985746
1008.5000000000001, 0.05944823358627471
1008.9999999999999, 0.05944929202279259
1009.4999999999999, 0.05945197389408108
1010.0000000000001, 0.05944627157130444
1010.4999999999999, 0.05943799462508981
1011.0000000000001, 0.05946568930726215
1011.4999999999999, 0.059486968553162045
1011.9999999999999, 0.05935317662997153
1012.4999999999999, 0.05910445655764407
1013.0000000000001, 0.05895693286374826
1013.5000000000001, 0.05900053973384822
1014.0000000000001, 0.0592172209513675
1014.5000000000001, 0.05943961852068236
1015.0000000000001, 0.059487577305822104
1015.4999999999999, 0.05944672307545262
1016.0000000000001, 0.05944033910750213
1016.4999999999999, 0.05945011537052447
1016.9999999999999, 0.05944875433233854
1017.5000000000001, 0.05945153491632804
1018.0000000000001, 0.059456812518998814
1018.5000000000001, 0.05943222765112299
1018.9999999999999, 0.059422449712301706
1019.4999999999999, 0.059546205969126076
1020.0000000000001, 0.05979649650432728
1020.4999999999999, 0.0600717986420638
1021.0000000000001, 0.06026861971707387
1021.5000000000003, 0.06031165161944563
1022.0000000000001, 0.06027955602419188
1022.5000000000001, 0.060272880789583594
1023.0000000000001, 0.06028152019303479
1023.5000000000001, 0.06028215110489865
1024.0000000000002, 0.06028005375250267
1024.5000000000002, 0.060280236612574756
1025, 0.0602803013080534
1025.5000000000002, 0.06027998768195708
1026.0000000000002, 0.0602818863797151
1026.5, 0.06028200541030582
1027.0000000000002, 0.06027371175751073
1027.5, 0.060277036687701124
1028, 0.06030942206945822
1028.5000000000002, 0.06028082987210226
1029.0000000000002, 0.060098876439466986
1029.5000000000002, 0.05982675868387921
1030.0000000000002, 0.05956807334765968
1030.5000000000002, 0.05942841842719859
1031, 0.05943123666242256
1031.5, 0.059451243216607885
1032.0000000000002, 0.05944255589493064
1032.5000000000002, 0.059473127862199604
1033.0000000000002, 0.059480736828268155
1033.5, 0.05930627920780018
1034.0000000000002, 0.05906251068643309
1034.5, 0.058989112650561726
1035, 0.05903166622821232
1035.5000000000002, 0.05904429796739041
1036, 0.05903236788231725
1036.5, 0.059030654903695745
1037.0000000000002, 0.059033776789499615
1037.5, 0.059033850361083884
1038.0000000000002, 0.059033089608068634
1038.5000000000002, 0.059033162706233266
1039.0000000000002, 0.0590332934831026
1039.5000000000002, 0.05903324395614018
1040.0000000000002, 0.05903341365463732
1040.5000000000002, 0.05903339284537368
1041.0000000000002, 0.05903256108055499
1041.5000000000002, 0.059033073331339225
1042, 0.05903625067094609
1042.5000000000002, 0.059032627610169364
1043.0000000000002, 0.05902141409647621
1043.5, 0.05904190664743181
1044.0000000000002, 0.05907795830646967
1044.5, 0.0589728333671502
1045.0000000000005, 0.058721845005106355
1045.5000000000002, 0.058576900075061444
1046.0000000000002, 0.0585991768877715
1046.5000000000005, 0.05862936817839848
1047.0000000000002, 0.058620576117948686
1047.5000000000002, 0.05861433157606566
1048.0000000000002, 0.05861720022947847
1048.5000000000002, 0.058618365929427374
1049, 0.05861752564191558
1049.5000000000002, 0.058617343080958895
1050.0000000000002, 0.05861756765565573
1050.5000000000002, 0.058617580337510966
1051.0000000000002, 0.0586175397655595
1051.5, 0.058617561482589675
1052, 0.05861749312258402
1052.5, 0.05861744546719927
1053.0000000000002, 0.05861780397309213
1053.5000000000005, 0.05861783260024633
1054.0000000000002, 0.058616335594785185
1054.5000000000002, 0.05861688556419631
1055.0000000000002, 0.05862274258662459
1055.5000000000002, 0.05861779945282375
1056.0000000000002, 0.05859629372926234
1056.5, 0.058627068960804385
1057.0000000000002, 0.058700003892041774
1057.5000000000002, 0.0585342582108247
1058.0000000000002, 0.058056801491369936
1058.5000000000002, 0.05766992048657105
1059, 0.05765321888424435
1059.5000000000002, 0.05804089200961893
1060, 0.05853292747257366
1060.5, 0.058592261080652075
1061, 0.05827023971167067
1061.5000000000002, 0.05795953470284654
1062, 0.05779062935693524
1062.5000000000002, 0.05776076755564752
1063.0000000000002, 0.05778808585247386
1063.5000000000002, 0.057794314718246365
1064.0000000000002, 0.05778304339582452
1064.5000000000002, 0.05777603993513358
1065.0000000000002, 0.05779888355708118
1065.5, 0.057816823502925274
1066, 0.057712339109339705
1066.5, 0.05747222373857319
1067.0000000000002, 0.057194564934958225
1067.5, 0.05698269290045743
1068, 0.056922022959063345
1068.5, 0.05695200931068123
1069.0000000000002, 0.056962922720526166
1069.5000000000002, 0.056954279970584665
1070.0000000000002, 0.05695263117037108
1070.5000000000002, 0.056954944187310175
1071, 0.056955090719831514
1071.5000000000002, 0.0569545079607624
1072, 0.05695453484852964
1072.5000000000002, 0.05695467434365409
1073, 0.05695465315155834
1073.5, 0.05695461824780579
1074, 0.0569546269975999
1074.5000000000002, 0.05695464931414307
1075, 0.05695463922398003
1075.5, 0.05695457669889048
1076, 0.05695463557921876
1076.5, 0.05695485779160914
1077, 0.0569545099263542
1077.5, 0.05695377051004391
1078.0000000000002, 0.05695557588443956
1078.5, 0.056957758919699675
1079.0000000000002, 0.056949214065675546
1079.5000000000002, 0.05694412717858477
1080.0000000000002, 0.05698184057996625
1080.5000000000002, 0.05698601112617896
1081, 0.05680704042040963
1081.5000000000002, 0.056565022607736215
1082.0000000000002, 0.05649531264538543
1082.5, 0.05653798106193231
1083, 0.05654916104994867
1083.5, 0.056538119623064986
1084, 0.0565386973903641
1084.5, 0.05653722875782985
1085.0000000000002, 0.05653081291931561
1085.5000000000002, 0.05655211692903139
1086.0000000000005, 0.05656857433316087
1086.5000000000002, 0.05646029776627082
1087.0000000000002, 0.05621772051225715
1087.5000000000002, 0.05594038025056247
1088, 0.05573172157037809
1088.5000000000002, 0.05567495152488311
1089.0000000000002, 0.05570564009304535
1089.5000000000002, 0.05571603840983319
1090, 0.055706803357598256
1090.5, 0.055703788557934564
1091.0000000000002, 0.05570915563398138
1091.5, 0.0557143079270237
1092, 0.05569851250298974
1092.5, 0.05568483117557865
1093, 0.0557545956890273
1093.5000000000002, 0.05577973241870837
1094.0000000000002, 0.055449273356014794
1094.5000000000002, 0.05495557732725642
1095.0000000000005, 0.05478937360315217
1095.5000000000002, 0.05486884259716629
1096.0000000000002, 0.054887787534244836
1096.5000000000002, 0.054876773788071764
1097, 0.05491445102043413
1097.5000000000002, 0.054847888988976745
1098, 0.05460518138494541
1098.5, 0.05442750854368872
1099, 0.05443355272699835
1099.5, 0.054471055392685375
1100, 0.05446552857218323
1100.5, 0.05445709223021855
1101, 0.05445937403246326
1101.5000000000005, 0.05446113754154247
1102.0000000000002, 0.05446037885993704
1102.5000000000002, 0.05446005578344659
1103.0000000000002, 0.05446026994469
1103.5000000000002, 0.05446027795332353
1104, 0.054460287023737175
1104.5000000000002, 0.054460437843614984
1105, 0.054460082247576924
1105.5, 0.05445961253239617
1106.0000000000002, 0.054461377445545245
1106.5, 0.05446250144217146
1107.0000000000002, 0.054454658622736796
1107.5000000000002, 0.05445352531413905
1108, 0.05448628334083394
1108.4999999999998, 0.05447643115161138
1109.0000000000002, 0.05431067291666325
1109.5000000000002, 0.05405336605514377
1110, 0.05381791001802083
1110.5000000000002, 0.053607464275930994
1111.0000000000002, 0.0533942930317699
1111.5000000000002, 0.05315025043264565
1112.0000000000002, 0.05289985974371747
1112.5, 0.05277020393197629
1113.0000000000002, 0.05278222111025288
1113.5000000000002, 0.0527992274970136
1114, 0.05279106620330398
1114.5, 0.05282787507710096
1115, 0.05282210814374133
1115.5, 0.05262032054673638
1116.0000000000002, 0.05239072818487711
1116.5000000000002, 0.05236775013934403
1117, 0.05237729867899854
1117.5000000000002, 0.05220217744138389
1118.0000000000002, 0.05189950524881892
1118.5000000000002, 0.051617151709543285
1119.0000000000002, 0.051573364630461915
1119.5000000000005, 0.0516588186893957
1120, 0.05127995765865179
1120.5000000000002, 0.05051987678877512
1121, 0.05016650711777948
1121.5, 0.050267957795296137
1122.0000000000002, 0.050346550720929195
1122.5000000000002, 0.05030937320988771
1123, 0.05026389329457959
1123.5, 0.05030633717062627
1124, 0.05042487142963592
1124.5, 0.05022878208151216
1125, 0.04953937170803624
1125.5, 0.04890630162018139
1126, 0.04866944264673989
1126.5000000000002, 0.0486353592019525
1127.0000000000002, 0.04864171230238379
1127.5000000000002, 0.0486272781230096
1128, 0.04862448030751276
1128.5000000000002, 0.04870857124207484
1129, 0.048676011761229265
1129.5000000000002, 0.04826278144864182
1130.0000000000002, 0.047810782725026924
1130.5000000000002, 0.04773719688962341
1131.0000000000002, 0.04781311620500883
1131.5, 0.04770110578621323
1132.0000000000002, 0.0472213553376023
1132.5, 0.04647792399174844
1133, 0.04604013051730882
1133.5000000000002, 0.04607842412900598
1134.0000000000002, 0.04619712713590263
1134.5000000000002, 0.04618204526009162
1135.0000000000002, 0.0460212282843846
1135.5000000000005, 0.04577583572916677
1136.0000000000002, 0.04553748655463952
1136.5, 0.045323498117184946
1137.0000000000002, 0.04511499419905285
1137.5000000000002, 0.04487358411156295
1138, 0.04460624231408317
1138.5000000000002, 0.04447335977406519
1139, 0.044506356050988516
1139.5000000000002, 0.044418287915985455
1140.0000000000002, 0.044157741489016966
1140.5, 0.04404661643709684
1141, 0.044083606071413706
1141.5000000000002, 0.04394997674610923
1142.0000000000005, 0.04369355203014191
1142.5000000000002, 0.04358923910951473
1143.0000000000002, 0.04364365692407557
1143.5, 0.04372331961988574
1144.0000000000002, 0.04363876606820216
1144.5000000000005, 0.043258751629260406
1145.0000000000002, 0.04270871875749016
1145.5000000000002, 0.04219103042410599
1146, 0.04195530876816955
1146.5000000000002, 0.04199544410690048
1147.0000000000002, 0.041909816578642456
1147.5000000000002, 0.04164634016381996
1148.0000000000002, 0.04154446628677022
1148.5000000000002, 0.04157963007643528
1149.0000000000002, 0.04146711710765316
1149.5, 0.0411938668361046
1150.0000000000005, 0.04089721662074208
1150.5000000000002, 0.04074066259603559
1151.0000000000002, 0.040789002288233234
1151.5000000000002, 0.04070121837843832
1152.0000000000002, 0.04025908242826903
1152.5000000000002, 0.03979420517732002
1153.0000000000002, 0.03955132504792125
1153.5, 0.03947782767484698
1154.0000000000002, 0.039487306840634284
1154.5000000000002, 0.039492876513454234
1155.0000000000002, 0.03948844957810571
1155.5000000000002, 0.03952229740007007
1156.0000000000002, 0.03951045919200369
1156.5000000000002, 0.039327689292885326
1157, 0.039082119505273516
1157.5000000000002, 0.038902516735545456
1158.0000000000002, 0.03861417503028164
1158.5000000000002, 0.03812241658523163
1159.0000000000002, 0.037780074090381865
1159.5, 0.03777750800837831
1160.0000000000005, 0.037850591439464454
1160.5000000000002, 0.0378451184933325
1161.0000000000002, 0.037818292065109116
1161.5000000000002, 0.037819587991779646
1162, 0.03786731637157226
1162.5, 0.03785568777217618
1163, 0.03764524716344109
1163.5, 0.03742160156491625
1164.0000000000002, 0.03741666040251945
1164.5, 0.03740566201626405
1165.0000000000002, 0.037176087309024664
1165.5, 0.03697407943343611
1166.0000000000002, 0.0369722368891201
1166.5000000000005, 0.03700180825970534
1167.0000000000002, 0.036986691789872794
1167.5000000000002, 0.037039120779755685
1168.0000000000002, 0.03706224330920016
1168.5000000000002, 0.0367640322658116
1169.0000000000002, 0.036266578751772194
1169.5000000000002, 0.03594209664574355
1170, 0.03576850063202963
1170.5000000000002, 0.03556344090828334
1171, 0.035326115715787254
1171.5, 0.03510089291462026
1172, 0.03488013602818296
1172.5000000000002, 0.03465459223058309
1173, 0.03443741879960216
1173.5, 0.03422156524431186
1174.0000000000002, 0.03396597015432945
1174.5000000000005, 0.033727333363073875
1175.0000000000002, 0.03365948333206159
1175.5, 0.03368472437960235
1176.0000000000005, 0.03356621470053711
1176.5000000000002, 0.03329754177681443
1177.0000000000002, 0.033004058478929066
1177.5000000000002, 0.03284208880075412
1178, 0.03288107399417184
1178.5, 0.03280983542463334
1179, 0.03239768589559322
1179.5, 0.03186311149599341
1180, 0.03140157054234638
1180.5, 0.031040505983624844
1181.0000000000002, 0.03080998948837832
1181.5, 0.030756095612910928
1182.0000000000002, 0.030777221174437375
1182.5000000000002, 0.030663036911455333
1183.0000000000002, 0.03039907989404045
1183.5000000000002, 0.030098552724678207
1184.0000000000002, 0.029933158450709096
1184.5000000000002, 0.029991511469782628
1185.0000000000002, 0.029899922472640283
1185.5000000000002, 0.02941852141826673
1186.0000000000005, 0.02905536863445779
1186.5000000000002, 0.02908230137041745
1187.0000000000002, 0.02905262824173016
1187.5000000000002, 0.028796560023218398
1188, 0.0286223821062479
1188.5, 0.028647636537607823
1189.0000000000002, 0.028766399200898407
1189.5, 0.02873788594745541
1190, 0.0283190721724651
1190.5000000000002, 0.027869063649865855
1191.0000000000002, 0.027843240473365838
1191.5000000000002, 0.027840031504877905
1192.0000000000002, 0.02743004348048239
1192.5000000000005, 0.026933673170822736
1193, 0.026666154260435615
1193.5000000000005, 0.026603047393113366
1194, 0.026625130294976374
1194.5, 0.026543649500736066
1195, 0.026303960542154448
1195.5, 0.02600112867872162
1196, 0.025790422638363508
1196.5, 0.025815588428815817
1197, 0.025798507418069994
1197.5, 0.025382536552681634
1198, 0.024934028354885118
1198.5000000000002, 0.024803895150344202
1199.0000000000002, 0.024406459891644472
1199.5000000000002, 0.023432238086357082
1200.0000000000002, 0.022736212519795518
1200.5000000000002, 0.02274938921415115
1201.0000000000002, 0.022928942859148926
1201.5000000000002, 0.022925920943732137
1202.0000000000002, 0.022727748014524596
1202.5, 0.02248719048831982
1203, 0.022437419439477524
1203.5, 0.02245858158423142
1204, 0.022291994713755536
1204.5000000000002, 0.02203389531919775
1205, 0.021840469216651948
1205.5000000000002, 0.021568343414410385
1206, 0.021114649732670188
1206.5000000000002, 0.020685531908509414
1207.0000000000005, 0.020438832489865333
1207.5000000000002, 0.020350502721453112
1208.0000000000002, 0.020358425012160897
1208.5000000000002, 0.020379313657497122
1209.0000000000002, 0.020375983487756932
1209.5, 0.02035622098604506
1210.0000000000002, 0.02036223054543196
1210.5000000000002, 0.02042661347498076
1211, 0.020378237138304667
1211.5000000000002, 0.02002709214911258
1212.0000000000002, 0.01948197726395484
1212.5, 0.018950082986737282
1213.0000000000002, 0.018680171463598905
1213.5, 0.018710831608104272
1214, 0.018648506439629786
1214.5000000000002, 0.018385707653954197
1215.0000000000002, 0.018268982456691285
1215.5000000000002, 0.018306849091982436
1216.0000000000002, 0.01817681171968577
1216.5, 0.017919490058524667
1217.0000000000002, 0.0178013085535621
1217.5000000000002, 0.017865742991832412
1218.0000000000002, 0.01800140374947945
1218.5, 0.01785039813999323
1219.0000000000002, 0.017193213625463
1219.5, 0.016524805519115282
1220.0000000000002, 0.01624647666426393
1220.5000000000002, 0.016219145479227426
1221, 0.016242399972707933
1221.5, 0.01614018940727624
1222.0000000000002, 0.015897114936069046
1222.5000000000002, 0.015658213197974447
1223.0000000000002, 0.015441952066754583
1223.5, 0.015184553993452421
1224.0000000000002, 0.0149784831539721
1224.5000000000002, 0.014950853604277059
1225.0000000000002, 0.014965212231907943
1225.5000000000002, 0.014828218705417062
1226.0000000000002, 0.014477759405632229
1226.5000000000002, 0.013982853729480826
1227.0000000000002, 0.01365960489382212
1227.5, 0.013655317472918593
1228, 0.01376776361234655
1228.5, 0.013785182148829511
1229, 0.01353628018303743
1229.5, 0.013046586288816608
1230.0000000000002, 0.012501945833915062
1230.5000000000002, 0.012093602513414514
1231.0000000000002, 0.011974564297047685
1231.5000000000002, 0.012054693713374087
1232.0000000000005, 0.0121429957107837
1232.5000000000002, 0.012021742873333907
1233.0000000000002, 0.011593186165179459
1233.5000000000002, 0.011108834592899242
1234.0000000000002, 0.01082300915076051
1234.5000000000002, 0.010868607625788784
1235.0000000000002, 0.010794624352197801
1235.5000000000002, 0.009489595437357834
1236.0000000000002, 0.007358025115286937
1236.5000000000002, 0.006088559445664332
1237, 0.005942817586899407
1237.5000000000002, 0.006250393552559075
1238, 0.006311002117840303
1238.5000000000002, 0.0056592590381785435
1239.0000000000002, 0.004948204777700527
1239.5000000000002, 0.004840341213861343
1240.0000000000002, 0.005034408672805801
1240.5000000000002, 0.005155752959662641
1241.0000000000002, 0.0050617670105941315
1241.5000000000002, 0.004722732129049501
1242.0000000000002, 0.004234256036538264
1242.5000000000002, 0.0038134651577024226
1243, 0.003757142659992274
1243.5, 0.003953032452784999
1244.0000000000002, 0.004045326792377679
1244.5, 0.004021212885716219
1245.0000000000002, 0.004010537862140895
1245.5000000000002, 0.004019058828976574
1246, 0.004020665754681518
1246.5000000000005, 0.004018387083766006
1247.0000000000002, 0.004018245771109319
1247.5000000000005, 0.00401882213646676
1248.0000000000005, 0.004018797683572606
1248.5000000000005, 0.004018647033882772
1249, 0.0040186620503495085
1249.5000000000002, 0.004018754900013466
1250.0000000000002, 0.004018745230569776
1250.5000000000002, 0.004018483672095563
1251, 0.004018604494721911
1251.5000000000002, 0.004019591490886043
1252.0000000000002, 0.004018649246080974
1252.5, 0.004015083154728316
1253, 0.004020691337874194
1253.5000000000002, 0.0040259973448411035
1254.0000000000002, 0.00396041747984488
1254.5, 0.003815652562373373
1255.0000000000002, 0.0037071333011668983
1255.5000000000002, 0.0037067317583434622
1256.0000000000002, 0.0038145981551982455
1256.5000000000002, 0.00395955243195889
1257.0000000000002, 0.004025873495547172
1257.5000000000002, 0.004020792609620294
1258.0000000000002, 0.004015073379866285
1258.5000000000002, 0.004018625995072522
1259.0000000000002, 0.004019595519695995
1259.5000000000002, 0.004018609610485946
1260.0000000000002, 0.004018485134447136
1260.5, 0.004018741185968677
1261.0000000000002, 0.004018743690901827
1261.5, 0.004018680931997531
1262, 0.004018687077101957
1262.5, 0.004018701594272089
1263.0000000000005, 0.004018698509653307
1263.5000000000002, 0.004018695364361946
1264.0000000000005, 0.004018696472051664
1264.5000000000002, 0.004018697097919688
1265.0000000000002, 0.004018696754551243
1265.5000000000002, 0.0040186966488848785
1266.0000000000002, 0.004018696740147654
1266.5000000000002, 0.0040186967379503
1267.0000000000002, 0.0040186967470168256
1267.5000000000002, 0.004018696802830624
1268.0000000000002, 0.004018696636939323
1268.5000000000002, 0.004018696482853024
1269, 0.004018697268557414
1269.5, 0.004018697547397032
1270, 0.004018694173353543
1270.5, 0.004018694520189436
1271.0000000000002, 0.004018708176868557
1271.5000000000002, 0.004018700639204731
1272, 0.004018648508760769
1272.5000000000002, 0.004018703913084121
1273.0000000000002, 0.004018889751136179
1273.5000000000002, 0.004018569793568849
1274.0000000000002, 0.0040179637383570554
1274.5, 0.004019588697197207
1275.0000000000002, 0.004021316748735515
1275.5000000000002, 0.004013747707014348
1276.0000000000002, 0.00401006395541037
1276.5, 0.004043038004961419
1277, 0.004043579102146699
1277.5, 0.003908078420684191
1278.0000000000002, 0.003966118901153282
1278.5000000000002, 0.004631662678227677
1279.0000000000005, 0.005407023810463096
1279.5000000000002, 0.005697104454152724
1280.0000000000002, 0.005856749913231596
1280.5000000000005, 0.006176628075862833
1281.0000000000002, 0.006167263977506776
1281.5000000000002, 0.005667419351249592
1282.0000000000002, 0.0053178632222177225
1282.5000000000002, 0.00535647390414451
1283.0000000000002, 0.005430561397842926
1283.5000000000002, 0.005413008600124503
1284.0000000000002, 0.005397183426352203
1284.5000000000002, 0.005403267393981004
1285.0000000000002, 0.005406361738907073
1285.5, 0.005404509068569707
1286, 0.005403979251899171
1286.5, 0.005404496296339101
1287.0000000000005, 0.005404566550575085
1287.5000000000002, 0.005404431575983137
1288.0000000000002, 0.005404429026195423
1288.5000000000002, 0.0054044626518967576
1289.0000000000002, 0.00540445999864958
1289.5000000000002, 0.005404450370460889
1290.0000000000002, 0.005404451438703495
