1.838160000000000082e+03 1.096565840231836773e+03
1.836589999999999918e+03 2.135604236336483154e+03
1.835029999999999973e+03 3.046241296469175722e+03
1.833460000000000036e+03 1.775780059862416238e+03
1.831890000000000100e+03 2.378068208764656447e+03
1.830329999999999927e+03 8.589598003397113644e+02
1.828759999999999991e+03 1.354748316530603915e+03
1.827190000000000055e+03 2.874286218230612576e+03
1.825619999999999891e+03 2.657350543956272304e+01
1.824049999999999955e+03 2.409610178157570772e+03
1.822490000000000009e+03 1.828258264734060504e+03
1.820920000000000073e+03 2.367795304740662687e+03
1.819349999999999909e+03 1.452081730256380979e+03
1.817779999999999973e+03 2.560117541280982550e+03
1.816210000000000036e+03 2.414902737814583816e+03
1.814640000000000100e+03 3.328437319857301190e+03
1.813069999999999936e+03 2.501721287408960052e+03
1.811490000000000009e+03 3.781881438225565944e+03
1.809920000000000073e+03 2.927662580524571240e+03
1.808349999999999909e+03 1.700193108332692645e+03
1.806779999999999973e+03 2.812473021649697330e+03
1.805210000000000036e+03 2.374502320475759916e+03
1.803630000000000109e+03 1.770399811046198010e+03
1.802059999999999945e+03 1.092926284619607031e+03
1.800490000000000009e+03 1.077202143702073954e+03
1.798910000000000082e+03 6.603413955495925620e+02
1.797339999999999918e+03 5.321144293794641271e+02
1.795769999999999982e+03 -1.383631512817228213e+02
1.794190000000000055e+03 -6.139821381570654921e+02
1.792619999999999891e+03 -8.869625440707895905e+02
1.791039999999999964e+03 6.399124410926597193e+02
1.789470000000000027e+03 4.784292099261656404e+02
1.787890000000000100e+03 -2.022018328716512769e+02
1.786309999999999945e+03 4.409133071309770457e+02
1.784740000000000009e+03 -4.324960049707442522e+00
1.783160000000000082e+03 -4.837158480084035546e+02
1.781579999999999927e+03 1.195639446833403781e+03
1.780009999999999991e+03 2.908646143638412468e+03
1.778430000000000064e+03 8.774954105188371614e+02
1.776849999999999909e+03 1.323090860199823510e+03
1.775269999999999982e+03 2.056432492681080475e+03
1.773690000000000055e+03 1.415520307962782681e+03
1.772109999999999900e+03 4.295354306044871919e+03
1.770529999999999973e+03 3.290934486927289981e+03
1.768950000000000045e+03 2.763260850610095076e+03
1.767369999999999891e+03 2.590333397093403619e+03
1.765789999999999964e+03 2.727152126377099194e+03
1.764210000000000036e+03 3.074717038461065385e+03
1.762630000000000109e+03 2.139028133345418610e+03
1.761049999999999955e+03 1.957085411030333489e+03
1.759470000000000027e+03 3.959888871515518986e+03
1.757890000000000100e+03 1.695438514801091515e+03
1.756309999999999945e+03 1.356734340887109283e+03
1.754720000000000027e+03 2.169845427603053395e+03
1.753140000000000100e+03 6.626320128518273123e+02
1.751559999999999945e+03 2.118164780901046470e+03
1.749970000000000027e+03 8.635079800989478827e+02
1.748390000000000100e+03 7.905315073109231889e+02
1.746799999999999955e+03 6.523622426283545792e+02
1.745220000000000027e+03 1.488765290032024495e+02
1.743630000000000109e+03 2.871948004401056096e+02
1.742049999999999955e+03 -1.615800154022173956e+03
1.740460000000000036e+03 -1.524994346465740819e+03
1.738880000000000109e+03 -7.344985417653224431e+02
1.737289999999999964e+03 -7.192051980891847052e+02
1.735710000000000036e+03 -9.352186342260101810e+02
1.734119999999999891e+03 -1.738437754430342466e+03
1.732529999999999973e+03 -7.039139148776885122e+02
1.730940000000000055e+03 -1.731647115567931905e+03
1.729359999999999900e+03 -1.287680639816913754e+03
1.727769999999999982e+03 5.407369561237283051e+01
1.726180000000000064e+03 -6.634290092011215165e+02
1.724589999999999918e+03 -1.138188754257513210e+03
1.723000000000000000e+03 -3.152055395568022504e+02
1.721410000000000082e+03 1.745206349010113627e+02
1.719819999999999936e+03 -1.398010230883955956e+03
1.718230000000000018e+03 -1.523798136911937036e+03
1.716640000000000100e+03 -7.698430831828154624e+02
1.715049999999999955e+03 -5.591450696964748204e+02
1.713460000000000036e+03 -3.670409645303152502e+01
1.711869999999999891e+03 -1.279520163452485576e+03
1.710279999999999973e+03 -1.119593270694836974e+03
1.708680000000000064e+03 -1.187901150732883252e+03
1.707089999999999918e+03 5.675100449337041937e+02
1.705500000000000000e+03 -8.573357996426057070e+02
1.703910000000000082e+03 -5.194386844617547467e+02
1.702309999999999945e+03 1.529217181334854104e+03
1.700720000000000027e+03 -9.684014005754143000e+02
1.699119999999999891e+03 2.967355247521772981e+02
1.697529999999999973e+03 1.783601245750789531e+03
1.695940000000000055e+03 4.920992650667903945e+01
1.694339999999999918e+03 6.145692545170895755e+02
1.692740000000000009e+03 2.044668298906530254e+03
1.691150000000000091e+03 1.448502625723136589e+03
1.689549999999999955e+03 2.176082729643792845e+03
1.687960000000000036e+03 1.932401359369279817e+03
1.686359999999999900e+03 2.064462522820860613e+03
1.684759999999999991e+03 3.146263402651646174e+03
1.683170000000000073e+03 9.358076784378499724e+02
1.681569999999999936e+03 2.607089617799618281e+03
1.679970000000000027e+03 3.488111273540591355e+03
1.678369999999999891e+03 3.413872645660769194e+03
1.676769999999999982e+03 2.759373734160035383e+03
1.675170000000000073e+03 1.917614539038506337e+03
1.673569999999999936e+03 5.025950602962402627e+02
1.671970000000000027e+03 2.004315297933120746e+03
1.670369999999999891e+03 1.374775251949205995e+03
1.668769999999999982e+03 1.222974922344437800e+03
1.667170000000000073e+03 1.090914309118874371e+03
1.665569999999999936e+03 9.525934122725157067e+02
1.663970000000000027e+03 5.520122318053618073e+02
1.662369999999999891e+03 1.587170767717412673e+03
1.660769999999999982e+03 -8.509309799914481118e+02
1.659160000000000082e+03 1.467678907513152808e+03
1.657559999999999945e+03 1.450054965790128335e+03
1.655960000000000036e+03 -5.318292595537495799e+02
1.654349999999999909e+03 -1.921006740169366822e+03
1.652750000000000000e+03 2.355868404724169523e+02
1.651150000000000091e+03 -2.720798625064780936e+02
1.649539999999999964e+03 -1.398044711242429912e+03
1.647940000000000055e+03 -1.637233608235663269e+03
1.646329999999999927e+03 -1.005723914698464796e+03
1.644730000000000018e+03 -2.251435005705920048e+03
1.643119999999999891e+03 7.754923010442871600e+01
1.641509999999999991e+03 -1.488730081418645568e+03
1.639910000000000082e+03 -2.372252768337493762e+02
1.638299999999999955e+03 -1.002030046083615161e+03
1.636690000000000055e+03 -8.880983626670204103e+02
1.635089999999999918e+03 -2.285377662489772774e+03
1.633480000000000018e+03 -1.470971436799969524e+03
1.631869999999999891e+03 -2.159828758443472907e+03
1.630259999999999991e+03 -2.829949627420515753e+03
1.628650000000000091e+03 -3.091334043730865233e+03
1.627039999999999964e+03 -4.307982007374579553e+03
1.625430000000000064e+03 -4.088893518351716921e+03
1.623819999999999936e+03 -3.633068576662277337e+03
1.622210000000000036e+03 -4.938507182306260802e+03
1.620599999999999909e+03 -4.016209335283609107e+03
1.618990000000000009e+03 -5.979175035594380461e+03
1.617380000000000109e+03 -4.979404283238574862e+03
1.615769999999999982e+03 -5.408897078216075897e+03
1.614160000000000082e+03 -5.747653420527116396e+03
1.612549999999999955e+03 -5.241673310171463527e+03
1.610930000000000064e+03 -4.995033865342498757e+03
1.609319999999999936e+03 -5.643582486593571957e+03
1.607710000000000036e+03 -4.994394655178184621e+03
1.606089999999999918e+03 -5.952552410276490264e+03
1.604480000000000018e+03 -7.230893310467828996e+03
1.602859999999999900e+03 -5.939583081220160238e+03
1.601250000000000000e+03 -6.507452713018283248e+03
1.599630000000000109e+03 -7.427674499424698297e+03
1.598019999999999982e+03 -5.688072862829489168e+03
1.596400000000000091e+03 -5.927826664889988024e+03
1.594789999999999964e+03 -6.794753759901504964e+03
1.593170000000000073e+03 -7.231039577615971211e+03
1.591549999999999955e+03 -6.981592226710985415e+03
1.589940000000000055e+03 -6.115313237602764275e+03
1.588319999999999936e+03 -6.750397902351804078e+03
1.586700000000000045e+03 -6.740749398481566459e+03
1.585079999999999927e+03 -5.296367725991935004e+03
1.583470000000000027e+03 -7.041147837037104182e+03
1.581849999999999909e+03 -6.883298180201440118e+03
1.580230000000000018e+03 -4.949715354746556841e+03
1.578609999999999900e+03 -5.828399360672221519e+03
1.576990000000000009e+03 -4.894350197978608776e+03
1.575369999999999891e+03 -4.023567866665543988e+03
1.573750000000000000e+03 -3.866052366733201779e+03
1.572130000000000109e+03 -4.129803698181523941e+03
1.570500000000000000e+03 -3.771940085714566521e+03
1.568880000000000109e+03 -3.897226727031462360e+03
1.567259999999999991e+03 -3.995780199728964362e+03
1.565640000000000100e+03 -3.746600503807130735e+03
1.564019999999999982e+03 -3.499687639265903272e+03
1.562390000000000100e+03 -3.412168076513335109e+03
1.560769999999999982e+03 -1.877790521840681322e+03
1.559150000000000091e+03 -1.554679798548750114e+03
1.557519999999999982e+03 -5.969673285345779732e+02
1.555900000000000091e+03 1.956608084888779558e+03
1.554269999999999982e+03 3.427819406525231898e+02
1.552650000000000091e+03 -1.990177955792751163e+03
1.551019999999999982e+03 -1.853542714279494248e+03
1.549400000000000091e+03 -6.360379205933422782e+02
1.547769999999999982e+03 -7.729412933305138722e+02
1.546140000000000100e+03 -6.321148018304375000e+02
1.544519999999999982e+03 4.165862034992896952e+02
1.542890000000000100e+03 -6.231259192510624416e+02
1.541259999999999991e+03 -1.021081777639337815e+02
1.539640000000000100e+03 -4.222109607908059843e+02
1.538009999999999991e+03 3.262681664458941668e+02
1.536380000000000109e+03 8.664771579199586995e+02
1.534750000000000000e+03 8.624160136315040290e+02
1.533119999999999891e+03 9.490847335804719478e+02
1.531490000000000009e+03 1.424483317766862456e+03
1.529859999999999900e+03 1.981611766190791968e+03
1.528230000000000018e+03 1.303470078852085862e+03
1.526599999999999909e+03 3.230582557508605532e+02
1.524970000000000027e+03 3.233762968870578334e+02
1.523339999999999918e+03 1.773424202260735910e+03
1.521710000000000036e+03 2.259201971871836577e+03
1.520069999999999936e+03 1.884540107176406309e+03
1.518440000000000055e+03 3.624775947987742256e+03
1.516809999999999945e+03 2.452741653036617208e+03
1.515180000000000064e+03 2.294437222322856542e+03
1.513539999999999964e+03 2.559686518036876805e+03
1.511910000000000082e+03 2.388840158523409627e+03
1.510269999999999982e+03 2.104544200721022207e+03
1.508640000000000100e+03 2.038155912407848518e+03
1.507000000000000000e+03 3.368314701089228038e+03
1.505369999999999891e+03 2.874384483976347838e+03
1.503730000000000018e+03 1.324998019141436089e+03
1.502099999999999909e+03 2.028525873228791170e+03
1.500460000000000036e+03 2.392594154877588153e+03
1.498819999999999936e+03 1.621388976047281176e+03
1.497190000000000055e+03 2.559103108297742438e+03
1.495549999999999955e+03 5.733526759512024000e+02
1.493910000000000082e+03 2.115328783125441987e+03
1.492269999999999982e+03 -4.196857017942238599e+01
1.490640000000000100e+03 3.126600471970159560e+02
1.489000000000000000e+03 -4.918255962408147752e+01
1.487359999999999900e+03 8.827013730756589212e+02
1.485720000000000027e+03 3.023118452962953597e+02
1.484079999999999927e+03 6.636488570378860459e+02
1.482440000000000055e+03 -6.522875916997436434e+02
1.480799999999999955e+03 4.025024990835227072e+02
1.479160000000000082e+03 1.680191293877433054e+02
1.477519999999999982e+03 -6.777377007871982642e+02
1.475869999999999891e+03 -8.929824295791331679e+02
1.474230000000000018e+03 -4.662878481542575173e+02
1.472589999999999918e+03 -1.134866727208485827e+03
1.470950000000000045e+03 -2.646719066741876304e+03
1.469299999999999955e+03 -1.652065984827291686e+03
1.467660000000000082e+03 -3.020466912760864943e+03
1.466019999999999982e+03 -2.613141301173483953e+03
1.464369999999999891e+03 -2.449315280631359201e+03
1.462730000000000018e+03 -3.931538257444160990e+03
1.461079999999999927e+03 -1.954264170353533700e+03
1.459440000000000055e+03 -2.743035735566518269e+03
1.457789999999999964e+03 -3.300313581927213818e+03
1.456150000000000091e+03 -2.113633735540439375e+03
1.454500000000000000e+03 -1.475463515352574177e+03
1.452849999999999909e+03 -2.275570100694952998e+03
1.451210000000000036e+03 -7.437139706293819472e+02
1.449559999999999945e+03 -6.433724894232582301e+02
1.447910000000000082e+03 -1.467307813747494947e+03
1.446259999999999991e+03 -2.815199436019756831e+02
1.444609999999999900e+03 -2.970088789868168533e+02
1.442970000000000027e+03 2.744732789153931662e+02
1.441319999999999936e+03 -5.205675899208290502e+02
1.439670000000000073e+03 -2.248852642874699086e+02
1.438019999999999982e+03 1.056520255815587007e+03
1.436369999999999891e+03 6.216489703883416951e+02
1.434720000000000027e+03 -5.484991205693222582e+02
1.433059999999999945e+03 8.218180184696684591e+02
1.431410000000000082e+03 4.011463884211843833e+01
1.429759999999999991e+03 9.951344536842079833e+02
1.428109999999999900e+03 7.028774629960535094e+02
1.426460000000000036e+03 -1.234656333222577814e+03
1.424799999999999955e+03 1.492667023417307064e+02
1.423150000000000091e+03 -5.948223825467866845e+02
1.421500000000000000e+03 5.428117270343936980e+02
1.419839999999999918e+03 4.378976254033041187e+02
1.418190000000000055e+03 3.079764463144238107e+02
1.416529999999999973e+03 7.175036906275199726e+02
1.414880000000000109e+03 1.336027222868753597e+03
1.413220000000000027e+03 1.068995813125977293e+03
1.411569999999999936e+03 2.546964056697324850e+03
1.409910000000000082e+03 2.054373992898676079e+03
1.408259999999999991e+03 1.250786947800079361e+03
1.406599999999999909e+03 1.660638229945674539e+03
1.404940000000000055e+03 1.939209341174981091e+03
1.403279999999999973e+03 3.453500281488173641e+03
1.401630000000000109e+03 2.799800981440348551e+03
1.399970000000000027e+03 2.822533267697668634e+03
1.398309999999999945e+03 2.226985383038758300e+03
1.396650000000000091e+03 2.396157327463617548e+03
1.394990000000000009e+03 2.349049100972362794e+03
1.393329999999999927e+03 2.408660703564819414e+03
1.391670000000000073e+03 2.144992135241045617e+03
1.390009999999999991e+03 3.241043396001041401e+03
1.388349999999999909e+03 3.111814485844923183e+03
1.386690000000000055e+03 2.786305404772458132e+03
1.385029999999999973e+03 2.508516152783879079e+03
1.383369999999999891e+03 3.166446729879069608e+03
1.381700000000000045e+03 2.957786952183465473e+03
1.380039999999999964e+03 3.075155499669606797e+03
1.378380000000000109e+03 2.767243876239517704e+03
1.376710000000000036e+03 3.387736824521620292e+03
1.375049999999999955e+03 2.368263171482481994e+03
1.373390000000000100e+03 2.613509347527113277e+03
1.371720000000000027e+03 2.185155021786806174e+03
1.370059999999999945e+03 3.196839168222504668e+03
1.368390000000000100e+03 2.204919427152548451e+03
1.366730000000000018e+03 1.861041543979197741e+03
1.365059999999999945e+03 1.415556387579767033e+03
1.363390000000000100e+03 1.327787674543506000e+03
1.361730000000000018e+03 1.236065903068287298e+03
1.360059999999999945e+03 5.027317747025517747e+02
1.358390000000000100e+03 2.698114089699927717e+03
1.356730000000000018e+03 1.863548429922841024e+03
1.355059999999999945e+03 2.908365329590742476e+03
1.353390000000000100e+03 1.455898672621813603e+03
1.351720000000000027e+03 2.389148459016229026e+03
1.350049999999999955e+03 2.154114688773930538e+03
1.348380000000000109e+03 1.080797361894743517e+03
1.346710000000000036e+03 1.914196478378959000e+03
1.345039999999999964e+03 2.243312038226344157e+03
1.343369999999999891e+03 1.533144041436957195e+03
1.341700000000000045e+03 1.512692488010798115e+03
1.340029999999999973e+03 1.458957377947983332e+03
1.338359999999999900e+03 1.549938711248396430e+03
1.336680000000000064e+03 7.722805307225789875e+02
1.335009999999999991e+03 1.116693052805552725e+03
1.333339999999999918e+03 1.331822018251754344e+03
1.331660000000000082e+03 -4.116936341273249127e+02
1.329990000000000009e+03 2.398665201014373451e+02
1.328319999999999936e+03 7.681431176934565883e+02
1.326640000000000100e+03 -1.312230006538971793e+03
1.324970000000000027e+03 -1.980522220164362807e+03
1.323289999999999964e+03 3.505324383306433447e+02
1.321619999999999891e+03 4.766714134878129698e+02
1.319940000000000055e+03 -6.708461452898918651e+02
1.318259999999999991e+03 9.953493332405341789e+02
1.316589999999999918e+03 8.346342425995972008e+02
1.314910000000000082e+03 -2.674249614268774167e+01
1.313230000000000018e+03 8.095938024231581949e+02
1.311559999999999945e+03 4.200246459840855096e+02
1.309880000000000109e+03 7.697887272772495635e+02
1.308200000000000045e+03 1.343265845878544496e+03
1.306519999999999982e+03 1.175456001787882997e+03
1.304839999999999918e+03 2.032359195005265065e+03
1.303160000000000082e+03 1.285975425530661596e+03
1.301480000000000018e+03 1.184304693364159903e+03
1.299799999999999955e+03 2.197346998505701777e+03
1.298119999999999891e+03 1.421102340955316322e+03
1.296440000000000055e+03 1.802570720712916227e+03
1.294759999999999991e+03 1.412752137778647011e+03
1.293069999999999936e+03 2.625246295241522603e+03
1.291390000000000100e+03 1.379852078812022228e+03
1.289710000000000036e+03 3.198170899690652732e+03
1.288029999999999973e+03 3.144202757877355907e+03
1.286339999999999918e+03 2.973540513848798582e+03
1.284660000000000082e+03 2.361996738540270599e+03
1.282980000000000018e+03 2.481166000539844390e+03
1.281289999999999964e+03 3.536636025823070668e+03
1.279609999999999900e+03 3.311229654327500612e+03
1.277920000000000073e+03 3.217120619725727011e+03
1.276240000000000009e+03 2.139138614735013107e+03
1.274549999999999955e+03 3.087450520248268731e+03
1.272859999999999900e+03 3.835472036679682788e+03
1.271180000000000064e+03 4.577625727390550310e+03
1.269490000000000009e+03 4.310068183936993591e+03
1.267799999999999955e+03 4.223220251401653513e+03
1.266109999999999900e+03 4.547081929784500971e+03
1.264420000000000073e+03 4.350653219085506862e+03
1.262740000000000009e+03 4.377365263891639188e+03
1.261049999999999955e+03 3.491357493307703407e+03
1.259359999999999900e+03 4.455059333641955163e+03
1.257670000000000073e+03 4.077470784894365352e+03
1.255980000000000018e+03 5.403591847065021284e+03
1.254289999999999964e+03 4.296422520153864753e+03
1.252599999999999909e+03 2.346962804160895757e+03
1.250900000000000091e+03 3.865769526549091097e+03
1.249210000000000036e+03 4.257727314113988541e+03
1.247519999999999982e+03 3.597394712597073521e+03
1.245829999999999927e+03 3.618771721998346038e+03
1.244140000000000100e+03 4.318858342317776987e+03
1.242440000000000055e+03 5.245202799458173104e+03
1.240750000000000000e+03 5.108706923335441388e+03
1.239059999999999945e+03 5.099920658130955417e+03
1.237359999999999900e+03 6.043387064744281815e+03
1.235670000000000073e+03 4.772018303097545868e+03
1.233970000000000027e+03 5.494898766544123646e+03
1.232279999999999973e+03 4.968947508455254138e+03
1.230579999999999927e+03 5.499242028735170607e+03
1.228880000000000109e+03 4.606242713208717760e+03
1.227190000000000055e+03 4.599416851317306282e+03
1.225490000000000009e+03 3.122831592624192126e+03
1.223789999999999964e+03 3.858952498124795966e+03
1.222089999999999918e+03 3.549779567819088697e+03
1.220400000000000091e+03 4.190786994764639530e+03
1.218700000000000045e+03 3.409028121292241849e+03
1.217000000000000000e+03 4.000975412013533060e+03
1.215299999999999955e+03 3.950628866928513162e+03
1.213599999999999909e+03 4.015988486037182156e+03
1.211900000000000091e+03 3.920054269339510938e+03
1.210200000000000045e+03 4.064826216835586820e+03
1.208500000000000000e+03 3.453304328525322489e+03
1.206799999999999955e+03 3.202488604408805259e+03
1.205099999999999909e+03 4.145379044485918712e+03
1.203390000000000100e+03 3.423484171239921125e+03
1.201690000000000055e+03 3.628785211258509662e+03
1.199990000000000009e+03 2.763792415470816195e+03
1.198289999999999964e+03 3.318505783876811620e+03
1.196579999999999927e+03 2.799426915008691140e+03
1.194880000000000109e+03 3.110550883356074337e+03
1.193170000000000073e+03 4.495879147370258579e+03
1.191470000000000027e+03 3.415413715659175068e+03
1.189759999999999991e+03 4.710149112555664033e+03
1.188059999999999945e+03 4.359094280786055606e+03
1.186349999999999909e+03 3.538236810564820189e+03
1.184650000000000091e+03 4.683592578736599535e+03
1.182940000000000055e+03 5.043142241397697944e+03
1.181230000000000018e+03 5.131394601193256676e+03
1.179529999999999973e+03 5.950865405054355506e+03
1.177819999999999936e+03 5.979524897732248064e+03
1.176109999999999900e+03 6.749887087544659153e+03
1.174400000000000091e+03 5.417951974491530564e+03
1.172690000000000055e+03 5.873719558573007816e+03
1.170980000000000018e+03 7.292189839789003599e+03
1.169269999999999982e+03 5.992362818139517913e+03
1.167559999999999945e+03 6.595238493624550756e+03
1.165849999999999909e+03 6.735816866244131234e+03
1.164140000000000100e+03 7.565097935998142930e+03
1.162430000000000064e+03 8.267081702886731364e+03
1.160720000000000027e+03 7.911768166909867432e+03
1.159009999999999991e+03 8.577157328067580238e+03
1.157289999999999964e+03 9.222710837456514128e+03
1.155579999999999927e+03 1.001450365426996723e+04
1.153869999999999891e+03 9.588999168217997067e+03
1.152160000000000082e+03 1.067819737930042902e+04
1.150440000000000055e+03 1.185255297399393748e+04
1.148730000000000018e+03 1.206915484073228436e+04
1.147009999999999991e+03 1.161391060368774924e+04
1.145299999999999955e+03 1.256791612608183641e+04
1.143579999999999927e+03 1.180007205729931593e+04
1.141869999999999891e+03 1.305348123534923070e+04
1.140150000000000091e+03 1.382003733482863754e+04
1.138430000000000064e+03 1.453429264404874993e+04
1.136720000000000027e+03 1.413880643627571408e+04
1.135000000000000000e+03 1.583946191375784110e+04
1.133279999999999973e+03 1.515981660098064458e+04
1.131559999999999945e+03 1.647187049794415361e+04
1.129839999999999918e+03 1.703462360464836820e+04
1.128130000000000109e+03 1.860864392809494166e+04
1.126410000000000082e+03 1.902379720306111267e+04
1.124690000000000055e+03 1.983864968776798923e+04
1.122970000000000027e+03 1.995620138221554225e+04
1.121250000000000000e+03 2.110745228640385903e+04
1.119519999999999982e+03 2.171782564942821045e+04
1.117799999999999955e+03 2.214547322431733483e+04
1.116079999999999927e+03 2.409782000894710654e+04
1.114359999999999900e+03 2.526186600331758382e+04
1.112640000000000100e+03 2.474561120742876665e+04
1.110910000000000082e+03 2.632547011630580528e+04
1.109190000000000055e+03 2.737461199111785390e+04
1.107470000000000027e+03 2.741445307567054988e+04
1.105740000000000009e+03 2.851640260848007165e+04
1.104019999999999982e+03 2.954464036373363342e+04
1.102289999999999964e+03 3.024498305951547809e+04
1.100569999999999936e+03 3.131061748546984745e+04
1.098839999999999918e+03 3.125535334422404412e+04
1.097119999999999891e+03 3.337138444087922107e+04
1.095390000000000100e+03 3.430251346260571154e+04
1.093660000000000082e+03 3.556333818634448107e+04
1.091940000000000055e+03 3.603546341466059675e+04
1.090210000000000036e+03 3.504868130137168919e+04
1.088480000000000018e+03 4.026859489009500248e+04
1.086750000000000000e+03 4.051820418083053664e+04
1.085019999999999982e+03 4.107950917357829167e+04
1.083299999999999955e+03 4.217112345547557925e+04
1.081569999999999936e+03 4.384182161119565717e+04
1.079839999999999918e+03 4.497821546892795595e+04
1.078109999999999900e+03 4.740230502867247560e+04
1.076369999999999891e+03 4.731046966750020511e+04
1.074640000000000100e+03 4.977694887232119800e+04
1.072910000000000082e+03 5.138312377915444085e+04
1.071180000000000064e+03 5.228599438799993368e+04
1.069450000000000045e+03 5.388256069885758916e+04
1.067720000000000027e+03 5.624582271172749461e+04
1.065980000000000018e+03 5.733914923982584151e+04
1.064250000000000000e+03 5.840680089777230751e+04
1.062509999999999991e+03 6.044551354288402945e+04
1.060779999999999973e+03 6.174955484590699780e+04
1.059049999999999955e+03 6.348029185094212880e+04
1.057309999999999945e+03 6.538308455613159458e+04
1.055579999999999927e+03 6.634921120624325704e+04
1.053839999999999918e+03 6.902539002844609786e+04
1.052099999999999909e+03 7.097226102459803224e+04
1.050369999999999891e+03 7.264747126285053673e+04
1.048630000000000109e+03 7.387572837601578794e+04
1.046890000000000100e+03 7.690967766313013271e+04
1.045150000000000091e+03 7.721931912419357104e+04
1.043420000000000073e+03 7.920130689365122817e+04
1.041680000000000064e+03 8.138433447172804154e+04
1.039940000000000055e+03 8.404805422375391936e+04
1.038200000000000045e+03 8.451546614972891985e+04
1.036460000000000036e+03 8.737057024965292658e+04
1.034720000000000027e+03 8.868736652352605597e+04
1.032980000000000018e+03 8.986785497134824982e+04
1.031240000000000009e+03 9.247303559311950812e+04
1.029500000000000000e+03 9.508890838883985998e+04
1.027750000000000000e+03 9.634180330202699406e+04
1.026009999999999991e+03 9.931805867653025780e+04
1.024269999999999982e+03 1.008630062249825860e+05
1.022529999999999973e+03 1.022426459473839495e+05
1.020779999999999973e+03 1.045453007006238913e+05
1.019039999999999964e+03 1.074413230018081958e+05
1.017299999999999955e+03 1.100300374769415939e+05
1.015549999999999955e+03 1.117847616654004669e+05
1.013809999999999945e+03 1.145928587193167477e+05
1.012059999999999945e+03 1.172119619381607627e+05
1.010320000000000050e+03 1.185874415708599263e+05
1.008570000000000050e+03 1.219309238200890541e+05
1.006820000000000050e+03 1.243860946948694182e+05
1.005080000000000041e+03 1.262306473111853993e+05
1.003330000000000041e+03 1.285561972163509054e+05
1.001580000000000041e+03 1.304084357470676769e+05
9.998319999999999936e+02 1.327879025928820483e+05
9.980839999999999463e+02 1.353520587755540328e+05
9.963350000000000364e+02 1.363191340949114528e+05
9.945850000000000364e+02 1.400761280174746062e+05
9.928350000000000364e+02 1.417428105655890249e+05
9.910850000000000364e+02 1.434291817392547382e+05
9.893350000000000364e+02 1.455362415384717169e+05
9.875839999999999463e+02 1.488192188733248913e+05
9.858319999999999936e+02 1.508671132097244263e+05
9.840810000000000173e+02 1.538484669057338033e+05
9.823279999999999745e+02 1.558879656228181557e+05
9.805760000000000218e+02 1.580639236995123792e+05
9.788229999999999791e+02 1.596477977089633641e+05
9.770689999999999600e+02 1.620005871164712880e+05
9.753160000000000309e+02 1.628408360618223087e+05
9.735620000000000118e+02 1.638630000486620993e+05
9.718070000000000164e+02 1.667860785419857420e+05
9.700520000000000209e+02 1.694098438790362561e+05
9.682970000000000255e+02 1.701882960598136415e+05
9.665410000000000537e+02 1.702406618548917759e+05
9.647849999999999682e+02 1.720257141367219156e+05
9.630280000000000200e+02 1.737896793186995783e+05
9.612709999999999582e+02 1.750503306302509445e+05
9.595140000000000100e+02 1.764466680713759852e+05
9.577559999999999718e+02 1.778769175194487616e+05
9.559980000000000473e+02 1.798738527397136204e+05
9.542390000000000327e+02 1.797356992519596242e+05
9.524800000000000182e+02 1.811172311788127699e+05
9.507210000000000036e+02 1.805964485202730284e+05
9.489610000000000127e+02 1.817755762594978441e+05
9.472000000000000455e+02 1.809506138596522796e+05
9.454400000000000546e+02 1.811231115335697541e+05
9.436789999999999736e+02 1.812755187104251818e+05
9.419170000000000300e+02 1.803098348530785588e+05
9.401549999999999727e+02 1.791228353363641072e+05
9.383930000000000291e+02 1.794275201602818270e+05
9.366309999999999718e+02 1.785988893248317181e+05
9.348680000000000518e+02 1.778321663802895346e+05
9.331040000000000418e+02 1.752533507889052853e+05
9.313400000000000318e+02 1.738412188211531611e+05
9.295760000000000218e+02 1.717057704770331620e+05
9.278110000000000355e+02 1.698612285893126682e+05
9.260460000000000491e+02 1.708453699664192682e+05
9.242809999999999491e+02 1.675061946083530202e+05
9.225149999999999864e+02 1.644129248094194045e+05
9.207480000000000473e+02 1.625155600309534639e+05
9.189819999999999709e+02 1.595996558641023003e+05
9.172150000000000318e+02 1.567146563585069962e+05
9.154470000000000027e+02 1.551085609751975280e+05
9.136789999999999736e+02 1.499041477790799690e+05
9.119109999999999445e+02 1.490554167701542901e+05
9.101420000000000528e+02 1.468245889847225044e+05
9.083730000000000473e+02 1.426744430268642027e+05
9.066029999999999518e+02 1.393501995730596827e+05
9.048329999999999700e+02 1.363146375870068441e+05
9.030629999999999882e+02 1.340417570687056868e+05
9.012920000000000300e+02 1.312757781546496262e+05
8.995209999999999582e+02 1.281104803483202122e+05
8.977490000000000236e+02 1.232400834259822732e+05
8.959769999999999754e+02 1.206393672511424811e+05
8.942050000000000409e+02 1.180263318238008069e+05
8.924320000000000164e+02 1.142231963796253258e+05
8.906589999999999918e+02 1.102427413225161727e+05
8.888849999999999909e+02 1.081591855275061971e+05
8.871109999999999900e+02 1.054753097589274112e+05
8.853360000000000127e+02 1.012503325309741776e+05
8.835620000000000118e+02 9.864981663488925551e+04
8.817859999999999445e+02 9.567341707184564439e+04
8.800109999999999673e+02 9.395047884067037376e+04
8.782340000000000373e+02 9.137665585941079189e+04
8.764579999999999700e+02 8.836729421001957962e+04
8.746810000000000400e+02 8.579182929604465608e+04
8.729039999999999964e+02 8.508704332537535811e+04
8.711259999999999764e+02 8.144615336742860381e+04
8.693479999999999563e+02 8.025894199133891379e+04
8.675689999999999600e+02 7.792162590487135458e+04
8.657899999999999636e+02 7.785098803860894986e+04
8.640109999999999673e+02 7.456802839255172876e+04
8.622309999999999945e+02 7.362896313173271483e+04
8.604510000000000218e+02 7.241257572926365538e+04
8.586699999999999591e+02 7.066008198811899638e+04
8.568890000000000100e+02 6.822126574326565606e+04
8.551069999999999709e+02 6.805134243541624164e+04
8.533250000000000455e+02 6.714509626159619074e+04
8.515430000000000064e+02 6.582152722180561977e+04
8.497599999999999909e+02 6.462985021310992306e+04
8.479769999999999754e+02 6.428084997597831534e+04
8.461939999999999600e+02 6.340152651041088393e+04
8.444099999999999682e+02 6.336009416952094762e+04
8.426259999999999764e+02 6.162733823752653552e+04
8.408410000000000082e+02 6.243447270466902410e+04
8.390560000000000400e+02 6.162828321783506544e+04
8.372699999999999818e+02 6.087898340419074520e+04
8.354840000000000373e+02 6.010635927349462872e+04
8.336970000000000027e+02 6.016062408963422058e+04
8.319109999999999445e+02 6.018235114324608003e+04
8.301230000000000473e+02 5.965217968092201045e+04
8.283360000000000127e+02 6.008747045607026666e+04
8.265480000000000018e+02 5.890864908791315975e+04
8.247590000000000146e+02 5.944371503107517492e+04
8.229700000000000273e+02 5.939545556673937244e+04
8.211810000000000400e+02 5.932087069490578142e+04
8.193909999999999627e+02 5.888617222492373548e+04
8.176009999999999991e+02 5.809414798355518724e+04
8.158099999999999454e+02 5.719800941605743719e+04
8.140190000000000055e+02 5.734254471308115171e+04
8.122279999999999518e+02 5.665675387462630169e+04
8.104360000000000355e+02 5.814084779955790145e+04
8.086440000000000055e+02 5.790461522471558419e+04
8.068509999999999991e+02 5.869126668446560507e+04
8.050579999999999927e+02 5.752559127994294977e+04
8.032649999999999864e+02 5.840758901114758919e+04
8.014710000000000036e+02 5.882646986544356332e+04
7.996760000000000446e+02 5.994623329562516301e+04
7.978819999999999482e+02 5.943845950956968591e+04
7.960860000000000127e+02 5.929477737434775918e+04
7.942910000000000537e+02 6.077555802288872655e+04
7.924950000000000045e+02 6.118822015229405952e+04
7.906979999999999791e+02 6.072776321474803262e+04
7.889020000000000437e+02 6.174376924357010284e+04
7.871040000000000418e+02 6.273486436675256118e+04
7.853070000000000164e+02 6.192842245630317484e+04
7.835090000000000146e+02 6.346286038266101968e+04
7.817100000000000364e+02 6.548617759740038309e+04
7.799109999999999445e+02 6.507516575660434319e+04
7.781119999999999663e+02 6.490682486027285631e+04
7.763120000000000118e+02 6.661936233777165762e+04
7.745119999999999436e+02 6.724357039381287177e+04
7.727110000000000127e+02 6.885565609163667250e+04
7.709099999999999682e+02 6.877341200187741197e+04
7.691090000000000373e+02 6.993683812453500286e+04
7.673070000000000164e+02 7.090114097340725129e+04
7.655040000000000191e+02 7.171331999884832476e+04
7.637019999999999982e+02 7.263096235668138252e+04
7.618990000000000009e+02 7.369848052455102152e+04
7.600950000000000273e+02 7.459287395250647387e+04
7.582910000000000537e+02 7.712893649328222091e+04
7.564869999999999663e+02 7.728766814687823353e+04
7.546820000000000164e+02 7.812327414346695878e+04
7.528769999999999527e+02 8.012054888593705255e+04
7.510710000000000264e+02 8.120869723731873091e+04
7.492649999999999864e+02 8.124351396743953228e+04
7.474579999999999700e+02 8.314520357198407874e+04
7.456509999999999536e+02 8.343056118792213965e+04
7.438440000000000509e+02 8.525758681525371503e+04
7.420359999999999445e+02 8.677748439839089406e+04
7.402279999999999518e+02 8.646604962537263054e+04
7.384189999999999827e+02 8.825648607285870821e+04
7.366100000000000136e+02 8.916558979643708153e+04
7.348010000000000446e+02 9.022036079610775050e+04
7.329909999999999854e+02 9.166400209664786234e+04
7.311810000000000400e+02 9.254231030532464501e+04
7.293700000000000045e+02 9.365048807875622879e+04
7.275589999999999691e+02 9.451133239216552465e+04
7.257469999999999573e+02 9.709904553380832658e+04
7.239349999999999454e+02 9.746142484706647519e+04
7.221230000000000473e+02 9.869947033193995594e+04
7.203099999999999454e+02 9.968738372388698917e+04
7.184969999999999573e+02 1.020269629188836843e+05
7.166829999999999927e+02 1.034334092836191849e+05
7.148690000000000282e+02 1.037095210826353432e+05
7.130539999999999736e+02 1.054164993136489647e+05
7.112390000000000327e+02 1.057511426099708333e+05
7.094239999999999782e+02 1.078444509716010361e+05
7.076079999999999472e+02 1.097116248425435479e+05
7.057920000000000300e+02 1.117904634096186346e+05
7.039750000000000227e+02 1.113441667474512797e+05
7.021580000000000155e+02 1.129395344120374502e+05
7.003400000000000318e+02 1.123357661084196880e+05
6.985220000000000482e+02 1.157086617619730532e+05
6.967039999999999509e+02 1.176562213726975606e+05
6.948849999999999909e+02 1.176056440910079255e+05
6.930660000000000309e+02 1.201537303967036278e+05
6.912459999999999809e+02 1.205396790702104045e+05
6.894260000000000446e+02 1.209542909611133946e+05
6.876059999999999945e+02 1.226785660694126855e+05
6.857849999999999682e+02 1.253547026202960551e+05
6.839629999999999654e+02 1.252907000583223416e+05
6.821420000000000528e+02 1.270881621184662508e+05
6.803189999999999600e+02 1.286066823647989950e+05
6.784969999999999573e+02 1.303226672332493326e+05
6.766730000000000018e+02 1.306687091760910116e+05
6.748500000000000227e+02 1.319972157410503423e+05
6.730259999999999536e+02 1.338975813401569321e+05
6.712019999999999982e+02 1.353906086746698711e+05
6.693769999999999527e+02 1.370974943015217432e+05
6.675520000000000209e+02 1.383940412927741418e+05
6.657259999999999991e+02 1.402494458341504214e+05
6.638999999999999773e+02 1.422415113687181147e+05
6.620729999999999791e+02 1.441224337107879692e+05
6.602459999999999809e+02 1.452940166746366885e+05
6.584189999999999827e+02 1.465152602602642728e+05
6.565910000000000082e+02 1.482963597246085410e+05
6.547630000000000337e+02 1.504671194391157478e+05
6.529339999999999691e+02 1.518577342889046122e+05
6.511050000000000182e+02 1.539200090170371986e+05
6.492749999999999773e+02 1.546561381366096030e+05
6.474450000000000500e+02 1.579929267625031935e+05
6.456150000000000091e+02 1.610353748947179993e+05
6.437839999999999918e+02 1.619706764880619885e+05
6.419529999999999745e+02 1.635676372155012796e+05
6.401209999999999809e+02 1.663814506594146369e+05
6.382889999999999873e+02 1.694969228649939760e+05
6.364560000000000173e+02 1.714962470419854799e+05
6.346230000000000473e+02 1.729982296080104425e+05
6.327899999999999636e+02 1.748388705630687764e+05
6.309560000000000173e+02 1.775353625577036291e+05
6.291219999999999573e+02 1.798055125685359235e+05
6.272870000000000346e+02 1.832395128730694414e+05
6.254519999999999982e+02 1.849001708207611809e+05
6.236159999999999854e+02 1.879216783158721519e+05
6.217799999999999727e+02 1.894468430808986595e+05
6.199439999999999600e+02 1.919826651158406748e+05
6.181069999999999709e+02 1.950563357648411766e+05
6.162690000000000055e+02 1.980198544675786979e+05
6.144320000000000164e+02 2.015398387227444327e+05
6.125929999999999609e+02 2.035078614415142802e+05
6.107549999999999955e+02 2.083953497127123410e+05
6.089160000000000537e+02 2.110816849163943552e+05
6.070760000000000218e+02 2.145298664916288108e+05
6.052359999999999900e+02 2.174127038417747535e+05
6.033959999999999582e+02 2.202811969668321544e+05
6.015549999999999500e+02 2.233505355280477088e+05
5.997140000000000555e+02 2.267575294899153232e+05
5.978719999999999573e+02 2.318443681392190629e+05
5.960299999999999727e+02 2.338488618147121160e+05
5.941870000000000118e+02 2.392791994285124238e+05
5.923440000000000509e+02 2.428431916938360373e+05
5.905009999999999764e+02 2.460818386106829857e+05
5.886570000000000391e+02 2.483523285289178020e+05
5.868120000000000118e+02 2.504306608860838751e+05
5.849679999999999609e+02 2.567784591701409081e+05
5.831219999999999573e+02 2.580392873051593779e+05
5.812770000000000437e+02 2.610185813670688076e+05
5.794310000000000400e+02 2.652037167423861683e+05
5.775839999999999463e+02 2.625976928680448327e+05
5.757369999999999663e+02 2.686513221445290255e+05
5.738899999999999864e+02 2.716336045718387468e+05
5.720420000000000300e+02 2.728287268105369294e+05
5.701939999999999600e+02 2.744395018243778031e+05
5.683450000000000273e+02 2.754171158980382606e+05
5.664959999999999809e+02 2.763003823709551943e+05
5.646459999999999582e+02 2.756764871517160791e+05
5.627960000000000491e+02 2.762772439556439640e+05
5.609460000000000264e+02 2.756926527827390237e+05
5.590950000000000273e+02 2.769568989771999186e+05
5.572430000000000518e+02 2.755129819744350389e+05
5.553909999999999627e+02 2.766447162420481327e+05
5.535389999999999873e+02 2.748851017800393165e+05
5.516870000000000118e+02 2.726071385884085903e+05
5.498329999999999700e+02 2.715651954722591909e+05
5.479800000000000182e+02 2.700737186588869081e+05
5.461259999999999764e+02 2.675570767647910397e+05
5.442709999999999582e+02 2.661152692244648351e+05
5.424160000000000537e+02 2.655851118238079944e+05
5.405610000000000355e+02 2.628316045628206339e+05
5.387050000000000409e+02 2.601459307125830383e+05
5.368490000000000464e+02 2.590859066247053270e+05
5.349919999999999618e+02 2.586607151927549858e+05
5.331349999999999909e+02 2.561311731456515263e+05
5.312780000000000200e+02 2.553072804833949485e+05
5.294199999999999591e+02 2.527242195330292743e+05
5.275610000000000355e+02 2.540099897278275166e+05
5.257019999999999982e+02 2.540464085518367938e+05
5.238429999999999609e+02 2.518384760050571058e+05
5.219829999999999472e+02 2.502883736583881546e+05
5.201230000000000473e+02 2.483549195628072484e+05
5.182619999999999436e+02 2.472132949108877801e+05
5.164009999999999536e+02 2.458563181317300769e+05
5.145399999999999636e+02 2.456549892253341095e+05
5.126779999999999973e+02 2.444924888165296288e+05
5.108149999999999977e+02 2.437558163373696443e+05
5.089519999999999982e+02 2.415087909737087612e+05
5.070889999999999986e+02 2.406254127255469793e+05
5.052250000000000227e+02 2.399738614599429711e+05
5.033609999999999900e+02 2.374199569309017388e+05
5.014959999999999809e+02 2.387558786263422226e+05
4.996309999999999718e+02 2.363134466792058083e+05
4.977649999999999864e+02 2.359888401980683557e+05
4.958990000000000009e+02 2.354138796950109536e+05
4.940330000000000155e+02 2.352795651700335438e+05
4.921659999999999968e+02 2.319650751624433324e+05
4.902989999999999782e+02 2.327762307533867715e+05
4.884309999999999832e+02 2.314252101024212898e+05
4.865629999999999882e+02 2.311838346702397102e+05
4.846940000000000168e+02 2.315752822364463937e+05
4.828249999999999886e+02 2.298253746414839115e+05
4.809549999999999841e+02 2.295102892848001793e+05
4.790849999999999795e+02 2.288648483867908362e+05
4.772139999999999986e+02 2.276522289665440330e+05
4.753430000000000177e+02 2.257532536246118252e+05
4.734719999999999800e+02 2.247799223609942128e+05
4.716000000000000227e+02 2.227104116239855648e+05
4.697280000000000086e+02 2.239625445847283700e+05
4.678550000000000182e+02 2.223514973107505357e+05
4.659820000000000277e+02 2.209420933537576930e+05
4.641080000000000041e+02 2.201105084003079101e+05
4.622339999999999804e+02 2.191765663828733668e+05
4.603589999999999804e+02 2.180214426068388857e+05
4.584839999999999804e+02 2.168869613856464275e+05
4.566089999999999804e+02 2.173171227192959923e+05
4.547330000000000041e+02 2.159341013411585591e+05
4.528570000000000277e+02 2.164287221364866709e+05
4.509800000000000182e+02 2.150041594570713933e+05
4.491019999999999754e+02 2.139284127303904970e+05
4.472250000000000227e+02 2.129971334439057973e+05
4.453460000000000036e+02 2.120068435073360451e+05
4.434680000000000177e+02 2.123750210109624895e+05
4.415889999999999986e+02 2.110320133216686954e+05
4.397090000000000032e+02 2.089738198663222720e+05
4.378290000000000077e+02 2.083932670569018810e+05
4.359490000000000123e+02 2.089193548934074934e+05
4.340679999999999836e+02 2.077872560081316042e+05
4.321859999999999786e+02 2.067349698273318063e+05
4.303050000000000068e+02 2.050531512778739852e+05
4.284220000000000255e+02 2.059803171085407375e+05
4.265389999999999873e+02 2.041211224373437872e+05
4.246560000000000059e+02 2.048595672642830468e+05
4.227730000000000246e+02 2.037516515893585747e+05
4.208890000000000100e+02 2.030015467049105209e+05
4.190040000000000191e+02 2.028062520362814539e+05
4.171190000000000282e+02 2.029385960995787755e+05
4.152330000000000041e+02 2.023927496120784781e+05
4.133469999999999800e+02 1.989145414730945195e+05
4.114610000000000127e+02 2.017259716826269578e+05
4.095740000000000123e+02 2.009352103825826780e+05
4.076870000000000118e+02 2.008740870474413969e+05
4.057989999999999782e+02 2.004467714352934854e+05
4.039110000000000014e+02 2.008000934042318841e+05
4.020219999999999914e+02 1.997622223283269268e+05
4.001329999999999814e+02 1.985659884494883299e+05
3.982429999999999950e+02 1.991625607575629547e+05
3.963530000000000086e+02 1.989647698784806125e+05
3.944630000000000223e+02 1.989076158122412453e+05
3.925720000000000027e+02 1.976732669721025450e+05
3.906800000000000068e+02 1.979857227812719066e+05
3.887880000000000109e+02 1.974108146342275431e+05
3.868960000000000150e+02 1.976845425309694256e+05
3.850029999999999859e+02 1.973670741151900438e+05
3.831100000000000136e+02 1.974112413583635062e+05
3.812160000000000082e+02 1.964862115191455814e+05
3.793220000000000027e+02 1.977588169538437796e+05
3.774270000000000209e+02 1.977972245358737418e+05
3.755319999999999823e+02 1.974582670065796992e+05
3.736370000000000005e+02 1.977109443659616518e+05
3.717400000000000091e+02 1.978225892045206565e+05
3.698439999999999941e+02 1.975317020583400154e+05
3.679470000000000027e+02 1.958176153249447816e+05
3.660489999999999782e+02 1.962783284257123596e+05
3.641519999999999868e+02 1.968305097346144612e+05
3.622529999999999859e+02 1.971556558224543696e+05
3.603539999999999850e+02 1.975414352559764811e+05
3.584549999999999841e+02 1.981788480351807375e+05
3.565550000000000068e+02 1.966020589113579481e+05
3.546549999999999727e+02 1.979739027469604916e+05
3.527540000000000191e+02 1.976645439068189589e+05
3.508530000000000086e+02 1.980948176396426279e+05
3.489510000000000218e+02 1.983248879235985223e+05
3.470489999999999782e+02 1.981795903938560805e+05
3.451469999999999914e+02 1.982119250504152733e+05
3.432440000000000282e+02 1.979450552911937411e+05
3.413399999999999750e+02 1.978629805357386940e+05
3.394359999999999786e+02 1.980105371926481603e+05
3.375319999999999823e+02 1.980337252619222272e+05
3.356270000000000095e+02 1.980467073670330574e+05
3.337219999999999800e+02 1.980063204972348758e+05
3.318159999999999741e+02 1.971347268885229714e+05
3.299089999999999918e+02 1.967339259595295007e+05
3.280029999999999859e+02 1.981445934322565154e+05
3.260950000000000273e+02 1.985302148513440625e+05
3.241879999999999882e+02 1.986533046721521241e+05
3.222799999999999727e+02 1.997471860093328287e+05
3.203709999999999809e+02 2.006618582809082582e+05
3.184619999999999891e+02 1.987601600264469744e+05
3.165520000000000209e+02 2.015962519300032291e+05
3.146419999999999959e+02 2.009489729192324448e+05
3.127320000000000277e+02 2.014183229941346799e+05
3.108210000000000264e+02 2.005824622560745338e+05
3.089089999999999918e+02 2.029653901221589767e+05
3.069970000000000141e+02 2.028319462967257714e+05
3.050849999999999795e+02 2.030121307797750051e+05
3.031720000000000255e+02 2.028621028949721658e+05
3.012590000000000146e+02 2.033277029297513945e+05
2.993450000000000273e+02 2.027040898186745762e+05
2.974300000000000068e+02 2.045602629779336858e+05
2.955160000000000196e+02 2.034299047332109476e+05
2.936000000000000227e+02 2.038924907199659501e+05
2.916850000000000023e+02 2.045225453027391341e+05
2.897690000000000055e+02 2.045033849876221502e+05
2.878519999999999754e+02 2.017160091901968990e+05
2.859350000000000023e+02 2.040082597547189216e+05
2.840169999999999959e+02 2.045402940573019150e+05
2.820989999999999895e+02 2.042579543319151271e+05
2.801800000000000068e+02 2.049373975645517930e+05
2.782610000000000241e+02 2.052024663790983032e+05
2.763419999999999845e+02 2.064551607755545992e+05
2.744220000000000255e+02 2.061356371544791618e+05
2.725009999999999764e+02 2.059598949302338588e+05
2.705799999999999841e+02 2.065167775070475182e+05
2.686589999999999918e+02 2.063942848849200527e+05
2.667370000000000232e+02 2.069445726830508211e+05
2.648149999999999977e+02 2.069624848915100738e+05
2.628919999999999959e+02 2.068471767385632556e+05
2.609689999999999941e+02 2.089794926050111244e+05
2.590450000000000159e+02 2.081475873279820080e+05
2.571209999999999809e+02 2.087313056792104035e+05
2.551959999999999980e+02 2.086118021044841735e+05
2.532709999999999866e+02 2.098709217666750192e+05
2.513449999999999989e+02 2.111428187200268731e+05
2.494190000000000111e+02 2.119973385187519307e+05
2.474919999999999902e+02 2.116356348253470496e+05
2.455649999999999977e+02 2.131475535855681519e+05
2.436370000000000005e+02 2.141032480699615844e+05
2.417090000000000032e+02 2.145665646160304896e+05
2.397800000000000011e+02 2.152166561021673260e+05
2.378509999999999991e+02 2.163803692578257469e+05
2.359219999999999970e+02 2.175457040830057813e+05
2.339919999999999902e+02 2.185968128676148481e+05
2.320610000000000070e+02 2.187516950229645881e+05
2.301299999999999955e+02 2.194051980629181489e+05
2.281990000000000123e+02 2.192363219874755596e+05
2.262669999999999959e+02 2.208962183011180023e+05
2.243340000000000032e+02 2.220668864145471598e+05
2.224010000000000105e+02 2.225761746268489223e+05
2.204679999999999893e+02 2.224580829380233481e+05
2.185339999999999918e+02 2.249627620663121052e+05
2.165999999999999943e+02 2.235370609003028949e+05
2.146649999999999920e+02 2.242511297648634645e+05
2.127299999999999898e+02 2.240848179417521169e+05
2.107940000000000111e+02 2.253762753622592718e+05
2.088569999999999993e+02 2.258495014358664921e+05
2.069209999999999923e+02 2.267031964970356785e+05
2.049830000000000041e+02 2.266398091579912580e+05
2.030449999999999875e+02 2.278050399499329505e+05
2.011069999999999993e+02 2.280668888728607562e+05
1.991680000000000064e+02 2.272115046760115074e+05
1.972290000000000134e+02 2.284817382159609988e+05
1.952899999999999920e+02 2.276945894927092886e+05
1.933489999999999895e+02 2.283463548215578485e+05
1.914089999999999918e+02 2.289205891379684035e+05
1.894670000000000130e+02 2.294197363226971065e+05
1.875260000000000105e+02 2.293963524949878338e+05
1.855840000000000032e+02 2.312267329831994430e+05
1.836409999999999911e+02 2.320648771949833317e+05
1.816980000000000075e+02 2.312346375647831592e+05
1.797539999999999907e+02 2.324451608679504716e+05
1.778100000000000023e+02 2.338672999339296366e+05
1.758650000000000091e+02 2.354202011426648241e+05
1.739199999999999875e+02 2.361967177188044298e+05
1.719749999999999943e+02 2.363118496623484825e+05
1.700289999999999964e+02 2.370437427598757786e+05
1.680819999999999936e+02 2.381273964178176830e+05
1.661349999999999909e+02 2.382586646517391200e+05
1.641870000000000118e+02 2.417916926542435540e+05
1.622390000000000043e+02 2.405553348367101280e+05
1.602909999999999968e+02 2.431015911991387838e+05
1.583420000000000130e+02 2.447146063398525876e+05
1.563919999999999959e+02 2.456783796643678506e+05
1.544420000000000073e+02 2.477857663762002485e+05
1.524919999999999902e+02 2.485267664753497811e+05
1.505409999999999968e+02 2.483135237669861817e+05
1.485889999999999986e+02 2.492740376560156874e+05
1.466370000000000005e+02 2.489411641389039869e+05
1.446850000000000023e+02 2.489919032156510511e+05
1.427319999999999993e+02 2.505863978974599449e+05
1.407779999999999916e+02 2.543726475886268308e+05
1.388240000000000123e+02 2.550185090793807758e+05
1.368700000000000045e+02 2.538779823697217507e+05
1.349149999999999920e+02 2.542682096760726999e+05
1.329590000000000032e+02 2.543281904021197988e+05
1.310029999999999859e+02 2.559657821326687990e+05
1.290469999999999970e+02 2.574579848677197006e+05
1.270900000000000034e+02 2.573939400281019916e+05
1.251320000000000050e+02 2.598066470168917440e+05
1.231740000000000066e+02 2.590359642142849043e+05
1.212159999999999940e+02 2.591368916202814726e+05
1.192570000000000050e+02 2.570945698593040288e+05
1.172980000000000018e+02 2.574148579086757090e+05
1.153379999999999939e+02 2.545588959943614609e+05
1.133769999999999953e+02 2.519656835185223608e+05
1.114159999999999968e+02 2.501530800559138006e+05
1.094549999999999983e+02 2.535050856065358093e+05
1.074929999999999950e+02 2.529108395987263357e+05
1.055300000000000011e+02 2.468573414340364106e+05
1.035669999999999931e+02 2.366424514846450475e+05
1.016039999999999992e+02 2.281021697505522752e+05
9.963989999999999725e+01 2.221636487246399047e+05
9.767539999999999623e+01 2.198557908468646929e+05
9.571040000000000703e+01 2.191936097005737538e+05
9.374490000000000123e+01 2.221151049860850326e+05
9.177899999999999636e+01 2.228592626205814595e+05
8.981250000000000000e+01 2.210811098903401289e+05
8.784550000000000125e+01 2.201316326924025198e+05
8.587800000000000011e+01 2.202148307267815981e+05
8.390999999999999659e+01 2.173357036934140488e+05
8.194150000000000489e+01 2.105862512921603047e+05
7.997239999999999327e+01 2.032934868858228438e+05
7.800289999999999679e+01 1.988703828280485468e+05
7.603289999999999793e+01 1.947489525015068066e+05
7.406239999999999668e+01 1.880111956057530479e+05
7.209130000000000393e+01 1.742571254231549683e+05
7.011979999999999791e+01 1.498567144672936120e+05
6.814770000000000039e+01 1.195799895832165057e+05
6.617520000000000380e+01 8.678912336453382159e+04
6.420210000000000150e+01 5.610354257593868533e+04
6.222849999999999682e+01 3.274633337372113601e+04
6.025439999999999685e+01 1.723629545688756843e+04
5.827980000000000160e+01 7.407328524368116632e+03
