1.838160000000000082e+03 -8.932718729436965077e+01
1.836589999999999918e+03 5.556490725346302497e+02
1.835029999999999973e+03 9.107443228348201956e+02
1.833460000000000036e+03 7.838174770715922932e+02
1.831890000000000100e+03 9.409392332956522296e+02
1.830329999999999927e+03 6.737790532622675528e+02
1.828759999999999991e+03 6.602977038940916827e+02
1.827190000000000055e+03 7.345649565131971030e+02
1.825619999999999891e+03 6.462808111195918173e+02
1.824049999999999955e+03 8.161452677132692770e+02
1.822490000000000009e+03 6.483262421872714185e+02
1.820920000000000073e+03 6.876875931887188926e+02
1.819349999999999909e+03 6.982975461774476571e+02
1.817779999999999973e+03 8.634561011534606223e+02
1.816210000000000036e+03 5.844632581167570606e+02
1.814640000000000100e+03 5.618190170673224202e+02
1.813069999999999936e+03 6.665233780051894428e+02
1.811490000000000009e+03 6.503105920048728876e+02
1.809920000000000073e+03 5.419124664841037884e+02
1.808349999999999909e+03 5.417629429506123415e+02
1.806779999999999973e+03 4.620620214044101886e+02
1.805210000000000036e+03 6.767097018454878707e+02
1.803630000000000109e+03 4.905417851541387790e+02
1.802059999999999945e+03 6.240869791365839774e+02
1.800490000000000009e+03 5.446807751063133765e+02
1.798910000000000082e+03 5.621599046157680277e+02
1.797339999999999918e+03 2.938512141268620326e+02
1.795769999999999982e+03 4.083911256252395106e+02
1.794190000000000055e+03 3.863173013355008152e+02
1.792619999999999891e+03 4.136547263752436265e+02
1.791039999999999964e+03 4.154790367322348175e+02
1.789470000000000027e+03 4.872139753133378690e+02
1.787890000000000100e+03 4.320364203170502151e+02
1.786309999999999945e+03 4.213080884134033113e+02
1.784740000000000009e+03 5.407894520899608324e+02
1.783160000000000082e+03 4.508592548330416321e+02
1.781579999999999927e+03 5.495782806687639095e+02
1.780009999999999991e+03 6.469060694407635310e+02
1.778430000000000064e+03 4.889232299232025980e+02
1.776849999999999909e+03 4.895896134982940566e+02
1.775269999999999982e+03 5.441052201660313585e+02
1.773690000000000055e+03 5.099700499264035898e+02
1.772109999999999900e+03 6.104841027794136608e+02
1.770529999999999973e+03 7.077473787250746682e+02
1.768950000000000045e+03 2.591598777633807913e+02
1.767369999999999891e+03 2.331215998943262093e+02
1.765789999999999964e+03 2.230325451179160154e+02
1.764210000000000036e+03 3.094927134341414785e+02
1.762630000000000109e+03 3.817021048430142400e+02
1.761049999999999955e+03 2.783607193445313897e+02
1.759470000000000027e+03 4.818685569386871066e+02
1.757890000000000100e+03 5.335256176254843012e+02
1.756309999999999945e+03 4.004319014049324323e+02
1.754720000000000027e+03 3.589328530503589718e+02
1.753140000000000100e+03 3.381378945536489482e+02
1.751559999999999945e+03 3.915921591495753091e+02
1.749970000000000027e+03 3.534420281989368959e+02
1.748390000000000100e+03 3.421950505187196541e+02
1.746799999999999955e+03 3.673443023408071895e+02
1.745220000000000027e+03 3.876960823844347033e+02
1.743630000000000109e+03 3.135447169792605564e+02
1.742049999999999955e+03 3.986952547467299155e+02
1.740460000000000036e+03 2.410432721142824448e+02
1.738880000000000109e+03 3.340925676056067459e+02
1.737289999999999964e+03 2.396399677458866790e+02
1.735710000000000036e+03 4.903880209610542806e+02
1.734119999999999891e+03 3.755348038740739867e+02
1.732529999999999973e+03 4.356314349286112702e+02
1.730940000000000055e+03 1.067779141246901418e+02
1.729359999999999900e+03 3.638237943261083274e+02
1.727769999999999982e+03 4.412696562949095096e+02
1.726180000000000064e+03 2.150653664052515524e+02
1.724589999999999918e+03 2.784109246571097174e+02
1.723000000000000000e+03 4.064063310504934634e+02
1.721410000000000082e+03 2.716515855854122492e+02
1.719819999999999936e+03 1.275466882618566160e+02
1.718230000000000018e+03 5.749163907983165700e+01
1.716640000000000100e+03 2.970864380393286410e+02
1.715049999999999955e+03 3.088310851403548440e+02
1.713460000000000036e+03 3.221255803829153592e+02
1.711869999999999891e+03 -1.923300762330072757e+02
1.710279999999999973e+03 -4.063588470739341574e+01
1.708680000000000064e+03 -3.813732226985302987e+01
1.707089999999999918e+03 -4.654312095086788759e+01
1.705500000000000000e+03 -2.447990714903498883e+02
1.703910000000000082e+03 -1.919051738883099461e+02
1.702309999999999945e+03 -1.751056493612704799e+02
1.700720000000000027e+03 -1.550117419658527069e+02
1.699119999999999891e+03 -2.040115786530295736e+02
1.697529999999999973e+03 -1.933176614642288769e+02
1.695940000000000055e+03 -2.719738961338953231e+02
1.694339999999999918e+03 -2.110229323834209936e+02
1.692740000000000009e+03 -2.754214914990297984e+02
1.691150000000000091e+03 -5.481275547234581609e+02
1.689549999999999955e+03 -4.103254750532687467e+02
1.687960000000000036e+03 -4.822315284843243717e+02
1.686359999999999900e+03 -3.193288100283425592e+02
1.684759999999999991e+03 -3.662756144384184154e+02
1.683170000000000073e+03 -4.302314964242468704e+02
1.681569999999999936e+03 -3.877776620485310559e+02
1.679970000000000027e+03 -1.998733505388809135e+02
1.678369999999999891e+03 -3.498185618952920777e+02
1.676769999999999982e+03 -4.589132961177565448e+02
1.675170000000000073e+03 -5.836575532062888669e+02
1.673569999999999936e+03 -5.956513331608839508e+02
1.671970000000000027e+03 -5.982946359815359756e+02
1.670369999999999891e+03 -5.571874616682471242e+02
1.668769999999999982e+03 -5.097298102210261277e+02
1.667170000000000073e+03 -4.966216816398555238e+02
1.665569999999999936e+03 -5.474630759247556853e+02
1.663970000000000027e+03 -6.966539930757171533e+02
1.662369999999999891e+03 -5.803944330927333795e+02
1.660769999999999982e+03 -7.184843959758145502e+02
1.659160000000000082e+03 -6.099595947839588916e+02
1.657559999999999945e+03 -6.230482879170740489e+02
1.655960000000000036e+03 -6.423865039162556059e+02
1.654349999999999909e+03 -8.051090074224703130e+02
1.652750000000000000e+03 -1.012945953671689495e+03
1.651150000000000091e+03 -7.468324227869525203e+02
1.649539999999999964e+03 -7.130022309912455967e+02
1.647940000000000055e+03 -1.003087430356557888e+03
1.646329999999999927e+03 -9.566553358749406470e+02
1.644730000000000018e+03 -9.631392654902883805e+02
1.643119999999999891e+03 -1.028705268322773918e+03
1.641509999999999991e+03 -9.105201610853800958e+02
1.639910000000000082e+03 -8.530520283347359509e+02
1.638299999999999955e+03 -7.893650184114449075e+02
1.636690000000000055e+03 -8.438268984182723216e+02
1.635089999999999918e+03 -9.029067033016362984e+02
1.633480000000000018e+03 -8.017666806225679466e+02
1.631869999999999891e+03 -8.420755478736173245e+02
1.630259999999999991e+03 -9.383333050547953462e+02
1.628650000000000091e+03 -8.666399521660969185e+02
1.627039999999999964e+03 -1.020195489207526407e+03
1.625430000000000064e+03 -8.629999161790692597e+02
1.623819999999999936e+03 -7.710532330807473045e+02
1.622210000000000036e+03 -1.025255439912540169e+03
1.620599999999999909e+03 -1.012406536674461677e+03
1.618990000000000009e+03 -8.784065233665023698e+02
1.617380000000000109e+03 -9.616553999886746169e+02
1.615769999999999982e+03 -8.618531665409645939e+02
1.614160000000000082e+03 -9.759998230233723007e+02
1.612549999999999955e+03 -8.899953694359137444e+02
1.610930000000000064e+03 -9.063660090244193270e+02
1.609319999999999936e+03 -1.074559017843359470e+03
1.607710000000000036e+03 -9.915009165924129775e+02
1.606089999999999918e+03 -8.977169541841285536e+02
1.604480000000000018e+03 -1.012956315339590219e+03
1.602859999999999900e+03 -9.965691784582340915e+02
1.601250000000000000e+03 -9.150060020200908184e+02
1.599630000000000109e+03 -1.189515690665670263e+03
1.598019999999999982e+03 -8.726499766339220514e+02
1.596400000000000091e+03 -1.038656490806435613e+03
1.594789999999999964e+03 -9.786882391810868285e+02
1.593170000000000073e+03 -1.033091578880535963e+03
1.591549999999999955e+03 -1.158643171630650613e+03
1.589940000000000055e+03 -9.222209548879654903e+02
1.588319999999999936e+03 -1.076969373165007710e+03
1.586700000000000045e+03 -1.175966044492713991e+03
1.585079999999999927e+03 -1.112710968871077057e+03
1.583470000000000027e+03 -1.216183359487342386e+03
1.581849999999999909e+03 -1.163625109392643935e+03
1.580230000000000018e+03 -1.118715112348603725e+03
1.578609999999999900e+03 -1.087753368355221028e+03
1.576990000000000009e+03 -1.207939877412496571e+03
1.575369999999999891e+03 -1.027074639520436904e+03
1.573750000000000000e+03 -9.450576546790398424e+02
1.572130000000000109e+03 -8.475889228883024771e+02
1.570500000000000000e+03 -8.148866755560738966e+02
1.568880000000000109e+03 -9.672141304410470184e+02
1.567259999999999991e+03 -1.016089838376676198e+03
1.565640000000000100e+03 -8.953137993629643461e+02
1.564019999999999982e+03 -7.499860133999136451e+02
1.562390000000000100e+03 -1.128423112795553607e+03
1.560769999999999982e+03 -8.797915135082039342e+02
1.559150000000000091e+03 -2.555081672715205059e+02
1.557519999999999982e+03 1.238211253855071845e+03
1.555900000000000091e+03 2.294298413416054245e+03
1.554269999999999982e+03 1.715922288689933339e+03
1.552650000000000091e+03 6.316132615752030688e+02
1.551019999999999982e+03 -6.058409003635460977e+00
1.549400000000000091e+03 -3.728636227940769459e+02
1.547769999999999982e+03 -2.874308392256316438e+02
1.546140000000000100e+03 -3.648456678848560841e+02
1.544519999999999982e+03 -5.712950019760501164e+02
1.542890000000000100e+03 -6.194053764879936352e+02
1.541259999999999991e+03 -6.428633632276068965e+02
1.539640000000000100e+03 -6.355568176195592969e+02
1.538009999999999991e+03 -6.419103502118923643e+02
1.536380000000000109e+03 -4.119114950318944466e+02
1.534750000000000000e+03 -5.733602520795720920e+02
1.533119999999999891e+03 -5.658566213549202075e+02
1.531490000000000009e+03 -3.098006028579402482e+02
1.529859999999999900e+03 -4.724921965886278485e+02
1.528230000000000018e+03 -3.391314025469837361e+02
1.526599999999999909e+03 -4.786182207330166420e+02
1.524970000000000027e+03 -2.486526511467163800e+02
1.523339999999999918e+03 -2.133346937880887708e+02
1.521710000000000036e+03 -1.795643486571316316e+02
1.520069999999999936e+03 -7.984990356066191453e+01
1.518440000000000055e+03 -8.117446148766975966e+01
1.516809999999999945e+03 9.055336835765046999e+01
1.515180000000000064e+03 1.883358597530241241e+01
1.513539999999999964e+03 3.759191119723254815e+00
1.511910000000000082e+03 -4.635549432059269748e+01
1.510269999999999982e+03 2.171758525323857612e+02
1.508640000000000100e+03 3.751662640341019141e+02
1.507000000000000000e+03 1.615033525956314406e+02
1.505369999999999891e+03 2.047988610393840645e+02
1.503730000000000018e+03 9.074169130946393125e+01
1.502099999999999909e+03 1.830422966952501156e+02
1.500460000000000036e+03 4.204908686738745018e+02
1.498819999999999936e+03 2.347924731913444703e+02
1.497190000000000055e+03 3.012508846888704284e+02
1.495549999999999955e+03 2.255823091489219223e+01
1.493910000000000082e+03 2.372186096797595383e+02
1.492269999999999982e+03 1.908320209834637353e+02
1.490640000000000100e+03 2.146009477624356805e+02
1.489000000000000000e+03 -1.467989922530250624e+01
1.487359999999999900e+03 1.539228632580125122e+01
1.485720000000000027e+03 1.919175044157527736e+02
1.484079999999999927e+03 8.629575504453896428e+01
1.482440000000000055e+03 3.238270382121772855e+02
1.480799999999999955e+03 7.661135391866264399e+01
1.479160000000000082e+03 3.684870216399212950e+01
1.477519999999999982e+03 1.661390829481642868e+02
1.475869999999999891e+03 1.904829236570112698e+02
1.474230000000000018e+03 5.947969288801687071e+01
1.472589999999999918e+03 1.843294946578607778e+02
1.470950000000000045e+03 2.406323289665451739e+02
1.469299999999999955e+03 3.121899186482369259e+02
1.467660000000000082e+03 1.206991414037584036e+02
1.466019999999999982e+03 1.223613966981210979e+02
1.464369999999999891e+03 1.864793794446632091e+02
1.462730000000000018e+03 -7.751976814146473771e+00
1.461079999999999927e+03 9.907304308927268721e+01
1.459440000000000055e+03 5.844807527728698915e+01
1.457789999999999964e+03 5.588013233757374110e+01
1.456150000000000091e+03 9.896155297242512461e+01
1.454500000000000000e+03 1.936006471895743744e+02
1.452849999999999909e+03 1.911934226556149952e+02
1.451210000000000036e+03 3.148345876452804077e+02
1.449559999999999945e+03 3.185344002681849815e+02
1.447910000000000082e+03 3.935878941399860196e+02
1.446259999999999991e+03 4.762950692606718803e+02
1.444609999999999900e+03 2.875559256302367430e+02
1.442970000000000027e+03 5.916635467906780832e+02
1.441319999999999936e+03 3.697314403171221784e+02
1.439670000000000073e+03 5.237530150924467307e+02
1.438019999999999982e+03 5.990282711166619265e+02
1.436369999999999891e+03 4.349572083897510311e+02
1.434720000000000027e+03 5.345398269117431482e+02
1.433059999999999945e+03 6.113849951860429428e+02
1.431410000000000082e+03 3.718753015466973011e+02
1.429759999999999991e+03 2.445192891562510340e+02
1.428109999999999900e+03 4.486169580146779481e+02
1.426460000000000036e+03 2.699683081219991436e+02
1.424799999999999955e+03 4.438838366579002468e+02
1.423150000000000091e+03 2.321428746038982354e+02
1.421500000000000000e+03 2.125555937987810466e+02
1.419839999999999918e+03 3.578334694167169800e+02
1.418190000000000055e+03 2.174538764502758568e+02
1.416529999999999973e+03 1.874400925604531949e+02
1.414880000000000109e+03 2.436681874326859543e+02
1.413220000000000027e+03 3.647627440351097903e+02
1.411569999999999936e+03 3.545985267460164323e+02
1.409910000000000082e+03 4.063014238406794902e+02
1.408259999999999991e+03 2.921448943902614701e+02
1.406599999999999909e+03 4.269561319771673880e+02
1.404940000000000055e+03 3.958217034665321989e+02
1.403279999999999973e+03 4.040416088583478995e+02
1.401630000000000109e+03 3.534007804261818819e+02
1.399970000000000027e+03 4.310290263102397148e+02
1.398309999999999945e+03 3.655116060967593512e+02
1.396650000000000091e+03 1.854485197857211460e+02
1.394990000000000009e+03 4.214397673771491100e+02
1.393329999999999927e+03 4.419853488710250531e+02
1.391670000000000073e+03 3.149852642673577066e+02
1.390009999999999991e+03 5.087395135661390668e+02
1.388349999999999909e+03 4.120480967673756822e+02
1.386690000000000055e+03 3.394110138710675528e+02
1.385029999999999973e+03 3.271282648772139510e+02
1.383369999999999891e+03 3.132998497858170595e+02
1.381700000000000045e+03 3.402447640752980078e+02
1.380039999999999964e+03 3.807253441014654527e+02
1.378380000000000109e+03 2.964602580300997943e+02
1.376710000000000036e+03 5.024694852493630606e+02
1.375049999999999955e+03 6.076133942955675593e+02
1.373390000000000100e+03 5.370116372442171269e+02
1.371720000000000027e+03 4.560851773932663491e+02
1.370059999999999945e+03 4.336924154595035361e+02
1.368390000000000100e+03 4.534756073232165363e+02
1.366730000000000018e+03 4.747918405070267909e+02
1.365059999999999945e+03 4.466846840854086622e+02
1.363390000000000100e+03 4.050325181633415923e+02
1.361730000000000018e+03 6.455124076798383612e+02
1.360059999999999945e+03 2.860698934724423452e+02
1.358390000000000100e+03 5.745823697645864740e+02
1.356730000000000018e+03 5.092259156137806713e+02
1.355059999999999945e+03 5.353480436205973092e+02
1.353390000000000100e+03 2.604251621269577299e+02
1.351720000000000027e+03 3.645572711328713922e+02
1.350049999999999955e+03 2.291443706383324752e+02
1.348380000000000109e+03 4.801864606433373410e+02
1.346710000000000036e+03 5.110835411478947208e+02
1.345039999999999964e+03 2.142356121519951557e+02
1.343369999999999891e+03 6.583426736556539254e+02
1.341700000000000045e+03 3.452047256588484743e+02
1.340029999999999973e+03 2.417217681615948095e+02
1.338359999999999900e+03 3.371938011638958415e+02
1.336680000000000064e+03 1.890486970213896711e+02
1.335009999999999991e+03 3.145310403072035115e+02
1.333339999999999918e+03 2.352683740925713209e+02
1.331660000000000082e+03 5.008956055818271125e+01
1.329990000000000009e+03 3.399372046270800638e+02
1.328319999999999936e+03 5.483983919551610597e+01
1.326640000000000100e+03 2.685273162692501501e+02
1.324970000000000027e+03 1.493402611212113698e+02
1.323289999999999964e+03 2.213387090190881281e+02
1.321619999999999891e+03 1.575619641545818013e+02
1.319940000000000055e+03 7.271382876602729084e+00
1.318259999999999991e+03 2.240364526387929800e+02
1.316589999999999918e+03 2.335253378417764907e+02
1.314910000000000082e+03 2.446013784281130938e+02
1.313230000000000018e+03 1.528330700546139269e+02
1.311559999999999945e+03 1.498758532510692021e+01
1.309880000000000109e+03 9.323024777574755717e+01
1.308200000000000045e+03 3.323285612665604276e+02
1.306519999999999982e+03 2.244825257975426211e+02
1.304839999999999918e+03 1.643921413686912274e+02
1.303160000000000082e+03 2.844574079800040636e+02
1.301480000000000018e+03 1.218783256314891332e+02
1.299799999999999955e+03 3.966548943231464364e+02
1.298119999999999891e+03 2.639871140549657866e+02
1.296440000000000055e+03 3.766749848269537324e+02
1.294759999999999991e+03 2.798185066391051805e+02
1.293069999999999936e+03 3.703541507057198032e+02
1.291390000000000100e+03 1.696093058543992811e+02
1.289710000000000036e+03 2.557201120432509924e+02
1.288029999999999973e+03 3.522865692722662061e+02
1.286339999999999918e+03 2.587464757522684522e+02
1.284660000000000082e+03 1.757245663178146060e+02
1.282980000000000018e+03 2.635583079235220794e+02
1.281289999999999964e+03 5.027864945205583354e+02
1.279609999999999900e+03 3.679318694628018420e+02
1.277920000000000073e+03 1.962723538805039425e+02
1.276240000000000009e+03 1.625293621592754789e+02
1.274549999999999955e+03 3.661821443976514274e+02
1.272859999999999900e+03 3.740912421603461553e+02
1.271180000000000064e+03 3.480158660719935142e+02
1.269490000000000009e+03 4.375372616553650005e+02
1.267799999999999955e+03 5.241149727630472626e+02
1.266109999999999900e+03 6.329489993950410280e+02
1.264420000000000073e+03 5.804393415513513901e+02
1.262740000000000009e+03 4.376435456886065367e+02
1.261049999999999955e+03 4.133461856655885640e+02
1.259359999999999900e+03 4.898051411668857327e+02
1.257670000000000073e+03 5.204204121924885840e+02
1.255980000000000018e+03 4.075919987424131250e+02
1.254289999999999964e+03 5.670199008166491694e+02
1.252599999999999909e+03 5.445041184151996276e+02
1.250900000000000091e+03 6.743894376771131647e+02
1.249210000000000036e+03 4.406866195522452472e+02
1.247519999999999982e+03 5.114401169516895607e+02
1.245829999999999927e+03 5.498499298754541087e+02
1.244140000000000100e+03 5.350160583235228842e+02
1.242440000000000055e+03 7.787849565464894113e+02
1.240750000000000000e+03 6.503640492711419938e+02
1.239059999999999945e+03 8.275994575201111729e+02
1.237359999999999900e+03 8.750386371996028174e+02
1.235670000000000073e+03 6.347870097251543484e+02
1.233970000000000027e+03 8.047398221088988066e+02
1.232279999999999973e+03 6.901011589110312343e+02
1.230579999999999927e+03 6.949676039990372374e+02
1.228880000000000109e+03 9.769910330390121089e+02
1.227190000000000055e+03 9.347219828699962818e+02
1.225490000000000009e+03 1.014859044614237064e+03
1.223789999999999964e+03 1.028753090310463449e+03
1.222089999999999918e+03 9.809041199586754374e+02
1.220400000000000091e+03 1.142061331570777838e+03
1.218700000000000045e+03 1.238525993923234637e+03
1.217000000000000000e+03 1.218647640227689408e+03
1.215299999999999955e+03 1.241626270484124689e+03
1.213599999999999909e+03 1.467561884692549938e+03
1.211900000000000091e+03 1.437654482852958608e+03
1.210200000000000045e+03 1.513604064965351427e+03
1.208500000000000000e+03 1.667610631029732758e+03
1.206799999999999955e+03 1.627474181046094600e+03
1.205099999999999909e+03 1.806394715014444955e+03
1.203390000000000100e+03 1.960426386920051300e+03
1.201690000000000055e+03 1.860261223992092710e+03
1.199990000000000009e+03 1.858553045016124088e+03
1.198289999999999964e+03 1.921501849992135249e+03
1.196579999999999927e+03 2.135763135676032107e+03
1.194880000000000109e+03 2.298526243755735777e+03
1.193170000000000073e+03 2.484802504914528981e+03
1.191470000000000027e+03 2.621179916097913519e+03
1.189759999999999991e+03 2.822071152731594339e+03
1.188059999999999945e+03 3.033162867018672841e+03
1.186349999999999909e+03 3.065469079127233272e+03
1.184650000000000091e+03 3.017175096518003556e+03
1.182940000000000055e+03 3.411396284101458150e+03
1.181230000000000018e+03 3.547775128008091997e+03
1.179529999999999973e+03 3.916852767654250783e+03
1.177819999999999936e+03 4.239146587035775156e+03
1.176109999999999900e+03 4.616898062740478053e+03
1.174400000000000091e+03 4.684307194768371119e+03
1.172690000000000055e+03 4.805873983119450713e+03
1.170980000000000018e+03 5.189298427793706651e+03
1.169269999999999982e+03 5.353280528791150573e+03
1.167559999999999945e+03 5.688220286111769383e+03
1.165849999999999909e+03 5.814117699755588546e+03
1.164140000000000100e+03 6.248372769722576777e+03
1.162430000000000064e+03 6.604985496012755902e+03
1.160720000000000027e+03 6.822755878626121557e+03
1.159009999999999991e+03 7.272783917562672286e+03
1.157289999999999964e+03 7.376632856635304051e+03
1.155579999999999927e+03 7.909576545389703824e+03
1.153869999999999891e+03 8.264277890467281395e+03
1.152160000000000082e+03 8.839136891868041857e+03
1.150440000000000055e+03 9.171818144062577630e+03
1.148730000000000018e+03 9.685192795281192957e+03
1.147009999999999991e+03 9.852790373608298978e+03
1.145299999999999955e+03 1.008748067464476480e+04
1.143579999999999927e+03 1.078269457910444180e+04
1.141869999999999891e+03 1.133620052995875812e+04
1.140150000000000091e+03 1.203673076055101774e+04
1.138430000000000064e+03 1.228701932378117635e+04
1.136720000000000027e+03 1.270019891794800787e+04
1.135000000000000000e+03 1.337250380731073528e+04
1.133279999999999973e+03 1.383646702931138498e+04
1.131559999999999945e+03 1.442828858394994313e+04
1.129839999999999918e+03 1.468676847122640174e+04
1.128130000000000109e+03 1.548753769569506403e+04
1.126410000000000082e+03 1.591593390910409653e+04
1.124690000000000055e+03 1.667418845515104840e+04
1.122970000000000027e+03 1.730420133383589928e+04
1.121250000000000000e+03 1.794417254515866080e+04
1.119519999999999982e+03 1.855347278028125584e+04
1.117799999999999955e+03 1.903036099602307149e+04
1.116079999999999927e+03 1.988460754440280289e+04
1.114359999999999900e+03 2.054401242542043474e+04
1.112640000000000100e+03 2.116547563907598669e+04
1.110910000000000082e+03 2.208566957421934057e+04
1.109190000000000055e+03 2.292994979229394812e+04
1.107470000000000027e+03 2.345488834300645976e+04
1.105740000000000009e+03 2.407535863460828841e+04
1.104019999999999982e+03 2.530451418973986074e+04
1.102289999999999964e+03 2.601140216601899010e+04
1.100569999999999936e+03 2.687007472556962603e+04
1.098839999999999918e+03 2.739968038652606265e+04
1.097119999999999891e+03 2.864886995049576217e+04
1.095390000000000100e+03 2.958349329612951260e+04
1.093660000000000082e+03 3.026717565465942607e+04
1.091940000000000055e+03 3.153964089482933196e+04
1.090210000000000036e+03 3.208814093803655851e+04
1.088480000000000018e+03 3.376349999413993646e+04
1.086750000000000000e+03 3.490731806313947891e+04
1.085019999999999982e+03 3.589159514503517858e+04
1.083299999999999955e+03 3.670915340496759745e+04
1.081569999999999936e+03 3.811474817154060293e+04
1.079839999999999918e+03 3.924520195100977435e+04
1.078109999999999900e+03 4.080871474337510153e+04
1.076369999999999891e+03 4.153956574795604683e+04
1.074640000000000100e+03 4.296179690722869418e+04
1.072910000000000082e+03 4.455958707939750457e+04
1.071180000000000064e+03 4.554323626446247363e+04
1.069450000000000045e+03 4.677474446242359409e+04
1.067720000000000027e+03 4.797831167328088486e+04
1.065980000000000018e+03 4.943681914501559368e+04
1.064250000000000000e+03 5.067400472278020607e+04
1.062509999999999991e+03 5.240103124562399898e+04
1.060779999999999973e+03 5.363703519029593735e+04
1.059049999999999955e+03 5.499079814786402858e+04
1.057309999999999945e+03 5.695350307582810638e+04
1.055579999999999927e+03 5.760298440030352504e+04
1.053839999999999918e+03 5.915240837937669130e+04
1.052099999999999909e+03 6.114479205554780492e+04
1.050369999999999891e+03 6.250565110094171541e+04
1.048630000000000109e+03 6.438125382822191750e+04
1.046890000000000100e+03 6.592651625260006404e+04
1.045150000000000091e+03 6.782073837407614337e+04
1.043420000000000073e+03 6.904673449439971591e+04
1.041680000000000064e+03 7.059877566698487499e+04
1.039940000000000055e+03 7.261447653666799306e+04
1.038200000000000045e+03 7.393793710344904684e+04
1.036460000000000036e+03 7.609295736732802470e+04
1.034720000000000027e+03 7.748843732830494992e+04
1.032980000000000018e+03 7.895947698637979920e+04
1.031240000000000009e+03 8.077547634155259584e+04
1.029500000000000000e+03 8.291883539382331946e+04
1.027750000000000000e+03 8.464234292922336317e+04
1.026009999999999991e+03 8.687982171877672954e+04
1.024269999999999982e+03 8.836436020542803453e+04
1.022529999999999973e+03 9.016695838917726360e+04
1.020779999999999973e+03 9.210370643037467380e+04
1.019039999999999964e+03 9.438442435140654561e+04
1.017299999999999955e+03 9.647420196953635605e+04
1.015549999999999955e+03 9.790213047634638497e+04
1.013809999999999945e+03 9.978802783175883815e+04
1.012059999999999945e+03 1.017850767639968253e+05
1.010320000000000050e+03 1.040890938566919212e+05
1.008570000000000050e+03 1.054712632143578521e+05
1.006820000000000050e+03 1.075654929572670080e+05
1.005080000000000041e+03 1.095086898274294508e+05
1.003330000000000041e+03 1.105000399957665650e+05
1.001580000000000041e+03 1.130764505493469042e+05
9.998319999999999936e+02 1.148319026297739765e+05
9.980839999999999463e+02 1.168104149574997573e+05
9.963350000000000364e+02 1.179339970306454634e+05
9.945850000000000364e+02 1.206136489526694932e+05
9.928350000000000364e+02 1.224493612599367625e+05
9.910850000000000364e+02 1.237951339524472569e+05
9.893350000000000364e+02 1.250079670302010054e+05
9.875839999999999463e+02 1.277898701638681960e+05
9.858319999999999936e+02 1.292858434570255486e+05
9.840810000000000173e+02 1.303928675337676395e+05
9.823279999999999745e+02 1.322199716133768088e+05
9.805760000000000218e+02 1.342391264765707310e+05
9.788229999999999791e+02 1.350003517065265623e+05
9.770689999999999600e+02 1.357746474069392716e+05
9.753160000000000309e+02 1.366509938563717296e+05
9.735620000000000118e+02 1.387174108454108355e+05
9.718070000000000164e+02 1.401608984778107260e+05
9.700520000000000209e+02 1.416004468410053523e+05
9.682970000000000255e+02 1.423460559349946561e+05
9.665410000000000537e+02 1.421717358453670167e+05
9.647849999999999682e+02 1.435284765557626670e+05
9.630280000000000200e+02 1.444582882210380048e+05
9.612709999999999582e+02 1.445911607556046511e+05
9.595140000000000100e+02 1.459340941594626638e+05
9.577559999999999718e+02 1.458620986914197274e+05
9.559980000000000473e+02 1.467851641619756119e+05
9.542390000000000327e+02 1.470553008992848918e+05
9.524800000000000182e+02 1.472764986445399118e+05
9.507210000000000036e+02 1.469357573977406428e+05
9.489610000000000127e+02 1.459830875911113399e+05
9.472000000000000455e+02 1.459814893287611194e+05
9.454400000000000546e+02 1.451129417114990065e+05
9.436789999999999736e+02 1.444674657079417375e+05
9.419170000000000300e+02 1.441710614222575387e+05
9.401549999999999727e+02 1.430157183527963934e+05
9.383930000000000291e+02 1.425504364995583019e+05
9.366309999999999718e+02 1.410892158625432930e+05
9.348680000000000518e+02 1.396120671518561430e+05
9.331040000000000418e+02 1.379969904717833851e+05
9.313400000000000318e+02 1.365779751469824405e+05
9.295760000000000218e+02 1.350330211774532800e+05
9.278110000000000355e+02 1.339611394124480430e+05
9.260460000000000491e+02 1.325123190722980944e+05
9.242809999999999491e+02 1.298975601570034632e+05
9.225149999999999864e+02 1.277028736202408327e+05
9.207480000000000473e+02 1.258612595664742112e+05
9.189819999999999709e+02 1.231306960534894315e+05
9.172150000000000318e+02 1.210462050931630656e+05
9.154470000000000027e+02 1.193447867900182464e+05
9.136789999999999736e+02 1.160834301207159006e+05
9.119109999999999445e+02 1.138211350852560281e+05
9.101420000000000528e+02 1.120359128812815761e+05
9.083730000000000473e+02 1.087087523808908445e+05
9.066029999999999518e+02 1.062396648515074776e+05
9.048329999999999700e+02 1.030206390954885283e+05
9.030629999999999882e+02 1.008816751128340256e+05
9.012920000000000300e+02 9.856478427568789630e+04
8.995209999999999582e+02 9.568395528172633203e+04
8.977490000000000236e+02 9.218119957295284257e+04
8.959769999999999754e+02 9.028550577722348680e+04
8.942050000000000409e+02 8.736087389453823562e+04
8.924320000000000164e+02 8.443131547173928993e+04
8.906589999999999918e+02 8.192581903188346769e+04
8.888849999999999909e+02 7.926199619175135740e+04
8.871109999999999900e+02 7.684763540450081928e+04
8.853360000000000127e+02 7.418504835689030006e+04
8.835620000000000118e+02 7.185901171038192115e+04
8.817859999999999445e+02 6.988056063024754985e+04
8.800109999999999673e+02 6.746665995121528977e+04
8.782340000000000373e+02 6.574924504860895104e+04
8.764579999999999700e+02 6.345718054710474826e+04
8.746810000000000400e+02 6.143629013532711542e+04
8.729039999999999964e+02 5.983416198648295540e+04
8.711259999999999764e+02 5.760570806751825876e+04
8.693479999999999563e+02 5.596881648158322059e+04
8.675689999999999600e+02 5.413739926575945719e+04
8.657899999999999636e+02 5.321334445310094452e+04
8.640109999999999673e+02 5.128235204360768694e+04
8.622309999999999945e+02 5.015723417961403175e+04
8.604510000000000218e+02 4.853557878896067268e+04
8.586699999999999591e+02 4.749029808419644542e+04
8.568890000000000100e+02 4.603017992298699392e+04
8.551069999999999709e+02 4.541283658813506918e+04
8.533250000000000455e+02 4.450675586709184427e+04
8.515430000000000064e+02 4.365593775985731918e+04
8.497599999999999909e+02 4.254329465466440888e+04
8.479769999999999754e+02 4.166391423357355234e+04
8.461939999999999600e+02 4.130089649658474082e+04
8.444099999999999682e+02 4.070135393742022279e+04
8.426259999999999764e+02 3.960057413269054086e+04
8.408410000000000082e+02 3.932116964649017609e+04
8.390560000000000400e+02 3.904332798509685381e+04
8.372699999999999818e+02 3.853746178301671898e+04
8.354840000000000373e+02 3.819435847615530656e+04
8.336970000000000027e+02 3.798863076946982619e+04
8.319109999999999445e+02 3.731435328826154728e+04
8.301230000000000473e+02 3.692716425310830527e+04
8.283360000000000127e+02 3.656822544343228219e+04
8.265480000000000018e+02 3.640106244534460711e+04
8.247590000000000146e+02 3.622437536461067793e+04
8.229700000000000273e+02 3.613715139056705084e+04
8.211810000000000400e+02 3.588799052321373892e+04
8.193909999999999627e+02 3.577870574958837096e+04
8.176009999999999991e+02 3.578968415322269720e+04
8.158099999999999454e+02 3.516263879176319460e+04
8.140190000000000055e+02 3.566245667817225331e+04
8.122279999999999518e+02 3.550203781244983838e+04
8.104360000000000355e+02 3.590819535820499004e+04
8.086440000000000055e+02 3.585811622247694322e+04
8.068509999999999991e+02 3.624741363956243003e+04
8.050579999999999927e+02 3.644427444585243938e+04
8.032649999999999864e+02 3.661169864134696400e+04
8.014710000000000036e+02 3.695759956642357429e+04
7.996760000000000446e+02 3.776177732720255153e+04
7.978819999999999482e+02 3.788040520751590520e+04
7.960860000000000127e+02 3.861452344085521327e+04
7.942910000000000537e+02 3.923559179372889776e+04
7.924950000000000045e+02 3.984253719466384064e+04
7.906979999999999791e+02 4.067745974989861861e+04
7.889020000000000437e+02 4.129923238925491751e+04
7.871040000000000418e+02 4.231719587741725991e+04
7.853070000000000164e+02 4.263110944970110722e+04
7.835090000000000146e+02 4.374310038888030249e+04
7.817100000000000364e+02 4.487536880131172802e+04
7.799109999999999445e+02 4.536100102790204983e+04
7.781119999999999663e+02 4.630089706865125481e+04
7.763120000000000118e+02 4.720697076001278765e+04
7.745119999999999436e+02 4.801970833649695851e+04
7.727110000000000127e+02 4.912792370556038077e+04
7.709099999999999682e+02 4.984140303074964322e+04
7.691090000000000373e+02 5.063234631206473568e+04
7.673070000000000164e+02 5.157986756351633812e+04
7.655040000000000191e+02 5.243536689169798774e+04
7.637019999999999982e+02 5.327951623301766085e+04
7.618990000000000009e+02 5.419544372214942996e+04
7.600950000000000273e+02 5.492794946574595815e+04
7.582910000000000537e+02 5.590421937871450064e+04
7.564869999999999663e+02 5.666665346105501521e+04
7.546820000000000164e+02 5.771006597571333987e+04
7.528769999999999527e+02 5.873224273090457427e+04
7.510710000000000264e+02 5.965289806077488902e+04
7.492649999999999864e+02 6.030341770237848687e+04
7.474579999999999700e+02 6.154171606110133871e+04
7.456509999999999536e+02 6.151917880279727251e+04
7.438440000000000509e+02 6.227270592746629700e+04
7.420359999999999445e+02 6.351411194740334759e+04
7.402279999999999518e+02 6.420748242159272922e+04
7.384189999999999827e+02 6.498643193364802573e+04
7.366100000000000136e+02 6.564054597127434681e+04
7.348010000000000446e+02 6.627382453447162698e+04
7.329909999999999854e+02 6.686258231388083368e+04
7.311810000000000400e+02 6.798840469021911849e+04
7.293700000000000045e+02 6.900890642552496865e+04
7.275589999999999691e+02 6.995017282915743999e+04
7.257469999999999573e+02 7.054891873459197814e+04
7.239349999999999454e+02 7.143862937979011622e+04
7.221230000000000473e+02 7.234580476475188334e+04
7.203099999999999454e+02 7.357265983015744132e+04
7.184969999999999573e+02 7.440057970680300787e+04
7.166829999999999927e+02 7.524047940688462404e+04
7.148690000000000282e+02 7.608574398972211930e+04
7.130539999999999736e+02 7.669628853906677978e+04
7.112390000000000327e+02 7.799129804272259935e+04
7.094239999999999782e+02 7.915637250068955473e+04
7.076079999999999472e+02 7.993122710410118452e+04
7.057920000000000300e+02 8.107064673341868911e+04
7.039750000000000227e+02 8.123114665140972647e+04
7.021580000000000155e+02 8.212631166694077547e+04
7.003400000000000318e+02 8.288085711445310153e+04
6.985220000000000482e+02 8.445196773117902922e+04
6.967039999999999509e+02 8.544804351711858180e+04
6.948849999999999909e+02 8.630809991427265049e+04
6.930660000000000309e+02 8.702622155235335231e+04
6.912459999999999809e+02 8.805342394511406019e+04
6.894260000000000446e+02 8.866169165055385383e+04
6.876059999999999945e+02 8.973302466867273324e+04
6.857849999999999682e+02 9.070443862090207404e+04
6.839629999999999654e+02 9.148193361495927093e+04
6.821420000000000528e+02 9.298147837203634845e+04
6.803189999999999600e+02 9.377611997198057361e+04
6.784969999999999573e+02 9.465981133494467940e+04
6.766730000000000018e+02 9.547259975638821197e+04
6.748500000000000227e+02 9.696843794085162517e+04
6.730259999999999536e+02 9.779535752649672213e+04
6.712019999999999982e+02 9.896934271222510142e+04
6.693769999999999527e+02 1.004924094429949764e+05
6.675520000000000209e+02 1.014075418457977503e+05
6.657259999999999991e+02 1.026867559375807468e+05
6.638999999999999773e+02 1.041520357733857090e+05
6.620729999999999791e+02 1.050903974421884486e+05
6.602459999999999809e+02 1.062938249270416709e+05
6.584189999999999827e+02 1.083113182279453613e+05
6.565910000000000082e+02 1.093208935419673944e+05
6.547630000000000337e+02 1.106515347441078338e+05
6.529339999999999691e+02 1.117512581035419425e+05
6.511050000000000182e+02 1.132020474232018169e+05
6.492749999999999773e+02 1.148719190444095439e+05
6.474450000000000500e+02 1.165278566979898605e+05
6.456150000000000091e+02 1.183188603839427815e+05
6.437839999999999918e+02 1.199399465518598445e+05
6.419529999999999745e+02 1.218950988243357569e+05
6.401209999999999809e+02 1.237793337231877667e+05
6.382889999999999873e+02 1.252516347988242778e+05
6.364560000000000173e+02 1.281560186453276692e+05
6.346230000000000473e+02 1.298794687408807076e+05
6.327899999999999636e+02 1.305999850854833785e+05
6.309560000000000173e+02 1.329955843816650158e+05
6.291219999999999573e+02 1.349352499992008379e+05
6.272870000000000346e+02 1.370639987129641522e+05
6.254519999999999982e+02 1.395368138204256538e+05
6.236159999999999854e+02 1.416417121688420302e+05
6.217799999999999727e+02 1.442316769833400322e+05
6.199439999999999600e+02 1.460117082639196306e+05
6.181069999999999709e+02 1.481018229664619721e+05
6.162690000000000055e+02 1.512050211996309226e+05
6.144320000000000164e+02 1.535292690154034644e+05
6.125929999999999609e+02 1.557546174988690764e+05
6.107549999999999955e+02 1.590720155649382796e+05
6.089160000000000537e+02 1.609384973790801014e+05
6.070760000000000218e+02 1.644610630500767438e+05
6.052359999999999900e+02 1.667756954770830343e+05
6.033959999999999582e+02 1.692173946600989439e+05
6.015549999999999500e+02 1.724511778813718702e+05
5.997140000000000555e+02 1.752780279312350031e+05
5.978719999999999573e+02 1.795869621645557927e+05
5.960299999999999727e+02 1.819169632990868704e+05
5.941870000000000118e+02 1.855600487623550580e+05
5.923440000000000509e+02 1.884442011994929926e+05
5.905009999999999764e+02 1.915624206105006451e+05
5.886570000000000391e+02 1.943467245319434442e+05
5.868120000000000118e+02 1.957801130728992284e+05
5.849679999999999609e+02 2.011755511238385807e+05
5.831219999999999573e+02 2.022630915127317712e+05
5.812770000000000437e+02 2.051416814116085297e+05
5.794310000000000400e+02 2.072103561482724617e+05
5.775839999999999463e+02 2.072341158319198294e+05
5.757369999999999663e+02 2.116429427804691950e+05
5.738899999999999864e+02 2.135468369939205004e+05
5.720420000000000300e+02 2.148148163364475477e+05
5.701939999999999600e+02 2.155258630167332012e+05
5.683450000000000273e+02 2.161279949718473654e+05
5.664959999999999809e+02 2.174031943376162089e+05
5.646459999999999582e+02 2.163094791240451159e+05
5.627960000000000491e+02 2.170168313940642111e+05
5.609460000000000264e+02 2.181162511476735235e+05
5.590950000000000273e+02 2.183477565043310169e+05
5.572430000000000518e+02 2.175483475735286484e+05
5.553909999999999627e+02 2.182800062723057927e+05
5.535389999999999873e+02 2.165617326006625080e+05
5.516870000000000118e+02 2.151965265585987363e+05
5.498329999999999700e+02 2.148024247502601065e+05
5.479800000000000182e+02 2.142303723790089425e+05
5.461259999999999764e+02 2.132934060855670250e+05
5.442709999999999582e+02 2.120515259796038736e+05
5.424160000000000537e+02 2.117307137224999897e+05
5.405610000000000355e+02 2.103129693142554315e+05
5.387050000000000409e+02 2.097163112763706013e+05
5.368490000000000464e+02 2.084817211605172197e+05
5.349919999999999618e+02 2.081422175614072476e+05
5.331349999999999909e+02 2.076127819575403119e+05
5.312780000000000200e+02 2.065924143489163253e+05
5.294199999999999591e+02 2.062351334401140048e+05
5.275610000000000355e+02 2.060189393410393677e+05
5.257019999999999982e+02 2.049788133837491623e+05
5.238429999999999609e+02 2.055257555682433886e+05
5.219829999999999472e+02 2.038027847457406751e+05
5.201230000000000473e+02 2.039548821383522591e+05
5.182619999999999436e+02 2.018770666706660995e+05
5.164009999999999536e+02 2.012823194914635387e+05
5.145399999999999636e+02 2.016146406007445767e+05
5.126779999999999973e+02 2.006170490332003974e+05
5.108149999999999977e+02 1.998035448989737197e+05
5.089519999999999982e+02 1.979011092000875215e+05
5.070889999999999986e+02 1.972727419365418609e+05
5.052250000000000227e+02 1.978544622899833776e+05
5.033609999999999900e+02 1.952362511522530403e+05
5.014959999999999809e+02 1.950201277785245620e+05
4.996309999999999718e+02 1.934680729871512449e+05
4.977649999999999864e+02 1.935261061068733106e+05
4.958990000000000009e+02 1.927502078825170174e+05
4.940330000000000155e+02 1.916443783140823361e+05
4.921659999999999968e+02 1.905936368407085538e+05
4.902989999999999782e+02 1.901019640968623280e+05
4.884309999999999832e+02 1.890403795953282388e+05
4.865629999999999882e+02 1.883608638969670574e+05
4.846940000000000168e+02 1.878454365882481507e+05
4.828249999999999886e+02 1.865770781563869386e+05
4.809549999999999841e+02 1.873668082615770109e+05
4.790849999999999795e+02 1.858246073173490004e+05
4.772139999999999986e+02 1.850284950576601259e+05
4.753430000000000177e+02 1.834014518223168270e+05
4.734719999999999800e+02 1.834864776113190746e+05
4.716000000000000227e+02 1.811895922693189350e+05
4.697280000000000086e+02 1.813247760254674358e+05
4.678550000000000182e+02 1.801960487982591440e+05
4.659820000000000277e+02 1.793543907430420513e+05
4.641080000000000041e+02 1.780658218521926319e+05
4.622339999999999804e+02 1.774843222072163771e+05
4.603589999999999804e+02 1.767709118744111620e+05
4.584839999999999804e+02 1.754795708614004834e+05
4.566089999999999804e+02 1.747092991681843414e+05
4.547330000000000041e+02 1.739071169719920435e+05
4.528570000000000277e+02 1.734980041695551190e+05
4.509800000000000182e+02 1.729929810121031187e+05
4.491019999999999754e+02 1.717910476106660790e+05
4.472250000000000227e+02 1.707751634257353144e+05
4.453460000000000036e+02 1.703863894331779447e+05
4.434680000000000177e+02 1.700826646571268793e+05
4.415889999999999986e+02 1.682670298592689796e+05
4.397090000000000032e+02 1.673244851507525600e+05
4.378290000000000077e+02 1.671340101322291885e+05
4.359490000000000123e+02 1.670516048036988650e+05
4.340679999999999836e+02 1.657012897498557286e+05
4.321859999999999786e+02 1.648970650819663424e+05
4.303050000000000068e+02 1.633808895935141772e+05
4.284220000000000255e+02 1.635378252612331125e+05
4.265389999999999873e+02 1.619558308415374195e+05
4.246560000000000059e+02 1.619339063344271271e+05
4.227730000000000246e+02 1.622790517399021774e+05
4.208890000000000100e+02 1.601982879025154107e+05
4.190040000000000191e+02 1.595436149337108654e+05
4.171190000000000282e+02 1.599500120260837430e+05
4.152330000000000041e+02 1.596685001357097935e+05
4.133469999999999800e+02 1.579900583808684605e+05
4.114610000000000127e+02 1.585556867615597439e+05
4.095740000000000123e+02 1.584114063454414136e+05
4.076870000000000118e+02 1.583401961392503581e+05
4.057989999999999782e+02 1.582700772850783833e+05
4.039110000000000014e+02 1.578360287152676901e+05
4.020219999999999914e+02 1.560120716463836434e+05
4.001329999999999814e+02 1.561381849363343790e+05
3.982429999999999950e+02 1.564333898761981400e+05
3.963530000000000086e+02 1.562756652494096197e+05
3.944630000000000223e+02 1.560770110559688183e+05
3.925720000000000027e+02 1.558364486987726705e+05
3.906800000000000068e+02 1.554549782896792749e+05
3.887880000000000109e+02 1.552335784630777489e+05
3.868960000000000150e+02 1.550272492189681216e+05
3.850029999999999859e+02 1.545090121094900242e+05
3.831100000000000136e+02 1.544688456571350107e+05
3.812160000000000082e+02 1.543787714887134789e+05
3.793220000000000027e+02 1.546377680520857102e+05
3.774270000000000209e+02 1.545258570487721299e+05
3.755319999999999823e+02 1.546040168519624567e+05
3.736370000000000005e+02 1.546052474616566324e+05
3.717400000000000091e+02 1.547195925051441882e+05
3.698439999999999941e+02 1.546539866536151676e+05
3.679470000000000027e+02 1.535984735717831354e+05
3.660489999999999782e+02 1.539320533718611405e+05
3.641519999999999868e+02 1.535206822395182098e+05
3.622529999999999859e+02 1.542324260646294861e+05
3.603539999999999850e+02 1.544042409954793984e+05
3.584549999999999841e+02 1.543821270320679469e+05
3.565550000000000068e+02 1.541641062874619383e+05
3.546549999999999727e+02 1.544241567235018592e+05
3.527540000000000191e+02 1.549813005282012164e+05
3.508530000000000086e+02 1.542685155884932028e+05
3.489510000000000218e+02 1.547198241673774901e+05
3.470489999999999782e+02 1.544972040768405423e+05
3.451469999999999914e+02 1.548446553168823884e+05
3.432440000000000282e+02 1.547032002630312054e+05
3.413399999999999750e+02 1.547008390278549341e+05
3.394359999999999786e+02 1.547335492733480642e+05
3.375319999999999823e+02 1.550383309995105374e+05
3.356270000000000095e+02 1.550462067320597998e+05
3.337219999999999800e+02 1.542771540203829063e+05
3.318159999999999741e+02 1.541901954653411231e+05
3.299089999999999918e+02 1.543063311796798371e+05
3.280029999999999859e+02 1.553175159240553039e+05
3.260950000000000273e+02 1.551038177266604616e+05
3.241879999999999882e+02 1.545451685593023140e+05
3.222799999999999727e+02 1.555886138869338320e+05
3.203709999999999809e+02 1.563241538224187098e+05
3.184619999999999891e+02 1.556507656144895882e+05
3.165520000000000209e+02 1.564474721649776911e+05
3.146419999999999959e+02 1.566612506473533867e+05
3.127320000000000277e+02 1.574431010616167332e+05
3.108210000000000264e+02 1.566680464226006297e+05
3.089089999999999918e+02 1.573510868433463038e+05
3.069970000000000141e+02 1.584591993467011489e+05
3.050849999999999795e+02 1.582473839326651942e+05
3.031720000000000255e+02 1.583796637668915209e+05
3.012590000000000146e+02 1.577950157591470052e+05
2.993450000000000273e+02 1.580704631505440630e+05
2.974300000000000068e+02 1.592890060543013678e+05
2.955160000000000196e+02 1.587145979504149873e+05
2.936000000000000227e+02 1.590033087887778820e+05
2.916850000000000023e+02 1.588330686194971204e+05
2.897690000000000055e+02 1.589429241891321726e+05
2.878519999999999754e+02 1.575698756110199611e+05
2.859350000000000023e+02 1.582888994930109475e+05
2.840169999999999959e+02 1.588800193784495059e+05
2.820989999999999895e+02 1.581412117996083980e+05
2.801800000000000068e+02 1.584315003754885111e+05
2.782610000000000241e+02 1.590728615627455001e+05
2.763419999999999845e+02 1.593012953613793652e+05
2.744220000000000255e+02 1.596028255039250944e+05
2.725009999999999764e+02 1.596684521039562533e+05
2.705799999999999841e+02 1.598991514667957090e+05
2.686589999999999918e+02 1.603349235924434324e+05
2.667370000000000232e+02 1.606777923649644363e+05
2.648149999999999977e+02 1.597037339760685572e+05
2.628919999999999959e+02 1.598747723856350931e+05
2.609689999999999941e+02 1.615308837095990602e+05
2.590450000000000159e+02 1.607010919836934481e+05
2.571209999999999809e+02 1.610093732480389881e+05
2.551959999999999980e+02 1.606997516142618260e+05
2.532709999999999866e+02 1.619282030466289725e+05
2.513449999999999989e+02 1.621417517326991656e+05
2.494190000000000111e+02 1.634033735608462885e+05
2.474919999999999902e+02 1.631860927946010779e+05
2.455649999999999977e+02 1.636448852464047959e+05
2.436370000000000005e+02 1.648017752557997010e+05
2.417090000000000032e+02 1.650667385592550272e+05
2.397800000000000011e+02 1.658727995723638742e+05
2.378509999999999991e+02 1.664599339555840415e+05
2.359219999999999970e+02 1.666601417089155002e+05
2.339919999999999902e+02 1.674904473620770441e+05
2.320610000000000070e+02 1.678198510292337742e+05
2.301299999999999955e+02 1.686143282187219011e+05
2.281990000000000123e+02 1.687728789305414248e+05
2.262669999999999959e+02 1.692355278467298485e+05
2.243340000000000032e+02 1.703222750815705513e+05
2.224010000000000105e+02 1.706480959911205282e+05
2.204679999999999893e+02 1.705769905753797502e+05
2.185339999999999918e+02 1.709439836688621435e+05
2.165999999999999943e+02 1.706080505133018887e+05
2.146649999999999920e+02 1.711162160195003671e+05
2.127299999999999898e+02 1.717694553529437399e+05
2.107940000000000111e+02 1.724517935007602791e+05
2.088569999999999993e+02 1.725092305774700653e+05
2.069209999999999923e+02 1.723857165706035739e+05
2.049830000000000041e+02 1.727753266707041766e+05
2.030449999999999875e+02 1.734500108271487989e+05
2.011069999999999993e+02 1.740127690399374114e+05
1.991680000000000064e+02 1.737816265254355676e+05
1.972290000000000134e+02 1.738905581437229703e+05
1.952899999999999920e+02 1.741155638947996194e+05
1.933489999999999895e+02 1.742576944408506679e+05
1.914089999999999918e+02 1.748638739033254387e+05
1.894670000000000130e+02 1.752821783903469914e+05
1.875260000000000105e+02 1.758355317937922373e+05
1.855840000000000032e+02 1.772619849672453711e+05
1.836409999999999911e+02 1.761015380255813361e+05
1.816980000000000075e+02 1.760431655228819291e+05
1.797539999999999907e+02 1.769108930583107285e+05
1.778100000000000023e+02 1.783396951093465905e+05
1.758650000000000091e+02 1.794525973518349929e+05
1.739199999999999875e+02 1.800575741866122698e+05
1.719749999999999943e+02 1.808436256136785087e+05
1.700289999999999964e+02 1.815107774239511928e+05
1.680819999999999936e+02 1.818750297325419087e+05
1.661349999999999909e+02 1.818953567869035760e+05
1.641870000000000118e+02 1.847037844931441650e+05
1.622390000000000043e+02 1.850472870219558536e+05
1.602909999999999968e+02 1.858648643733386707e+05
1.583420000000000130e+02 1.870785425686501258e+05
1.563919999999999959e+02 1.878113217231791932e+05
1.544420000000000073e+02 1.897351758539980510e+05
1.524919999999999902e+02 1.896271049611066701e+05
1.505409999999999968e+02 1.889931352196797961e+05
1.485889999999999986e+02 1.907942667451247398e+05
1.466370000000000005e+02 1.905294734007358202e+05
1.446850000000000023e+02 1.905587551865130954e+05
1.427319999999999993e+02 1.918791384316062031e+05
1.407779999999999916e+02 1.949456232515408192e+05
1.388240000000000123e+02 1.957141833556757192e+05
1.368700000000000045e+02 1.940258187440109032e+05
1.349149999999999920e+02 1.938945558998288179e+05
1.329590000000000032e+02 1.943143949387733592e+05
1.310029999999999859e+02 1.968473094161100744e+05
1.290469999999999970e+02 1.972612993318389344e+05
1.270900000000000034e+02 1.979573913235328218e+05
1.251320000000000050e+02 1.987745855069540266e+05
1.231740000000000066e+02 1.994208552831169509e+05
1.212159999999999940e+02 1.982802006520216528e+05
1.192570000000000050e+02 1.980556484056892514e+05
1.172980000000000018e+02 1.980111718293325393e+05
1.153379999999999939e+02 1.956567977922460705e+05
1.133769999999999953e+02 1.937065264103694644e+05
1.114159999999999968e+02 1.929133308530548238e+05
1.094549999999999983e+02 1.955112111203021195e+05
1.074929999999999950e+02 1.966891942360906687e+05
1.055300000000000011e+02 1.918582803164784564e+05
1.035669999999999931e+02 1.841004423761721700e+05
1.016039999999999992e+02 1.783896804151717515e+05
9.963989999999999725e+01 1.745830243301824084e+05
9.767539999999999623e+01 1.731484551967013685e+05
9.571040000000000703e+01 1.732189757868423476e+05
9.374490000000000123e+01 1.760775861587230465e+05
9.177899999999999636e+01 1.771692836370926525e+05
8.981250000000000000e+01 1.753640737429875880e+05
8.784550000000000125e+01 1.734839538050631236e+05
8.587800000000000011e+01 1.747819238814961282e+05
8.390999999999999659e+01 1.730869840304782847e+05
8.194150000000000489e+01 1.681191343102159735e+05
7.997239999999999327e+01 1.614123775355934340e+05
7.800289999999999679e+01 1.582417082554041408e+05
7.603289999999999793e+01 1.560621292806795100e+05
7.406239999999999668e+01 1.511636406696850900e+05
7.209130000000000393e+01 1.409242452529038419e+05
7.011979999999999791e+01 1.231549375481131283e+05
6.814770000000000039e+01 9.881472316191757272e+04
6.617520000000000380e+01 7.364819659657438751e+04
6.420210000000000150e+01 4.927126347427140718e+04
6.222849999999999682e+01 3.071252107338751375e+04
6.025439999999999685e+01 1.804206945229476696e+04
5.827980000000000160e+01 1.031080866938003601e+04
