1.838160000000000082e+03 8.403823517936107237e+02
1.836589999999999918e+03 1.552498820493325184e+03
1.835029999999999973e+03 1.773298997334011801e+03
1.833460000000000036e+03 1.657340576890554075e+03
1.831890000000000100e+03 1.721744911733127083e+03
1.830329999999999927e+03 1.572531758117031131e+03
1.828759999999999991e+03 1.495061203816447232e+03
1.827190000000000055e+03 1.532453404801868601e+03
1.825619999999999891e+03 1.370708361073309788e+03
1.824049999999999955e+03 1.454426072630780254e+03
1.822490000000000009e+03 1.366224299699548283e+03
1.820920000000000073e+03 1.168067122113850928e+03
1.819349999999999909e+03 1.374672699814163934e+03
1.817779999999999973e+03 1.361441032800499670e+03
1.816210000000000036e+03 1.284572121072855225e+03
1.814640000000000100e+03 1.505465964631232055e+03
1.813069999999999936e+03 1.474822563475619972e+03
1.811490000000000009e+03 1.363026955387122143e+03
1.809920000000000073e+03 1.233909464518750610e+03
1.808349999999999909e+03 1.278254728936393803e+03
1.806779999999999973e+03 1.298862748640050995e+03
1.805210000000000036e+03 1.022133523629730917e+03
1.803630000000000109e+03 1.128554092808470159e+03
1.802059999999999945e+03 9.998507780853797158e+02
1.800490000000000009e+03 9.079102186483214609e+02
1.798910000000000082e+03 9.922206550918417634e+02
1.797339999999999918e+03 1.076606005942012416e+03
1.795769999999999982e+03 1.011854112078195612e+03
1.794190000000000055e+03 8.850544157865333545e+02
1.792619999999999891e+03 8.124284322099556448e+02
1.791039999999999964e+03 8.953554481818682689e+02
1.789470000000000027e+03 8.499553748925245600e+02
1.787890000000000100e+03 8.885091031280389871e+02
1.786309999999999945e+03 7.716263886259148421e+02
1.784740000000000009e+03 7.026153806250185880e+02
1.783160000000000082e+03 7.714593783864838770e+02
1.781579999999999927e+03 6.548669334103178699e+02
1.780009999999999991e+03 6.732449906978617946e+02
1.778430000000000064e+03 5.552792579852830386e+02
1.776849999999999909e+03 7.288770825350729865e+02
1.775269999999999982e+03 7.060384643472352764e+02
1.773690000000000055e+03 6.452634034217589942e+02
1.772109999999999900e+03 7.001518997586645128e+02
1.770529999999999973e+03 7.583039533579285489e+02
1.768950000000000045e+03 7.895195642195722030e+02
1.767369999999999891e+03 8.349987323435852886e+02
1.765789999999999964e+03 6.242414577299678058e+02
1.764210000000000036e+03 6.983477403787110234e+02
1.762630000000000109e+03 5.890175802898302209e+02
1.761049999999999955e+03 6.932509774633290363e+02
1.759470000000000027e+03 5.335479318991820037e+02
1.757890000000000100e+03 3.976084435974189546e+02
1.756309999999999945e+03 6.110325125580238819e+02
1.754720000000000027e+03 5.257196299581119092e+02
1.753140000000000100e+03 2.131712157046022185e+02
1.751559999999999945e+03 5.907863587134670524e+02
1.749970000000000027e+03 4.094657594912387140e+02
1.748390000000000100e+03 3.608084192860005714e+02
1.746799999999999955e+03 4.542161439179362787e+02
1.745220000000000027e+03 1.485863204985907942e+02
1.743630000000000109e+03 2.500223689846789057e+02
1.742049999999999955e+03 2.617200623512217135e+02
1.740460000000000036e+03 1.849844346914760536e+02
1.738880000000000109e+03 3.291096448439202504e+02
1.737289999999999964e+03 3.030234103833208792e+01
1.735710000000000036e+03 3.337550679766718531e+02
1.734119999999999891e+03 3.943760880252339120e+02
1.732529999999999973e+03 2.785614724044426112e+02
1.730940000000000055e+03 2.574112211142855813e+02
1.729359999999999900e+03 3.214193838855644572e+02
1.727769999999999982e+03 2.294974564495714731e+02
1.726180000000000064e+03 1.393398933442003909e+02
1.724589999999999918e+03 3.166466945694664901e+02
1.723000000000000000e+03 1.101178601253777742e+02
1.721410000000000082e+03 1.742533900119269674e+02
1.719819999999999936e+03 1.897532842290929693e+02
1.718230000000000018e+03 -6.982457223093661014e+00
1.716640000000000100e+03 -1.203538343446452927e+02
1.715049999999999955e+03 -3.396084713556047063e+01
1.713460000000000036e+03 -1.707034955958442879e+02
1.711869999999999891e+03 -2.768177972549165133e+01
1.710279999999999973e+03 -1.107956995245040162e+02
1.708680000000000064e+03 -1.908340422312430746e+02
1.707089999999999918e+03 -4.261188285618773079e+02
1.705500000000000000e+03 -3.237392505618699943e+02
1.703910000000000082e+03 -5.084953082312276820e+02
1.702309999999999945e+03 -4.406741670339106349e+02
1.700720000000000027e+03 -4.527010912348960119e+02
1.699119999999999891e+03 -4.945500044090185838e+02
1.697529999999999973e+03 -4.390477951416178257e+02
1.695940000000000055e+03 -2.847812215435806138e+02
1.694339999999999918e+03 -3.547354199514084030e+02
1.692740000000000009e+03 -6.564244418684029370e+02
1.691150000000000091e+03 -7.323639656642408227e+02
1.689549999999999955e+03 -6.641230419526909827e+02
1.687960000000000036e+03 -6.364334322801441886e+02
1.686359999999999900e+03 -7.372625629400281468e+02
1.684759999999999991e+03 -7.785265171091086813e+02
1.683170000000000073e+03 -1.035543004830429709e+03
1.681569999999999936e+03 -8.684770133709462243e+02
1.679970000000000027e+03 -7.342458454206389433e+02
1.678369999999999891e+03 -7.564495009795282385e+02
1.676769999999999982e+03 -8.097879800476002856e+02
1.675170000000000073e+03 -9.068612826248572674e+02
1.673569999999999936e+03 -9.679694087113093701e+02
1.671970000000000027e+03 -9.492123583069333108e+02
1.670369999999999891e+03 -1.014790131411744369e+03
1.668769999999999982e+03 -1.106802728025762917e+03
1.667170000000000073e+03 -1.003550148148948210e+03
1.665569999999999936e+03 -9.830323917813293519e+02
1.663970000000000027e+03 -1.090449458922885242e+03
1.662369999999999891e+03 -7.764013495736362529e+02
1.660769999999999982e+03 -1.074088063733572199e+03
1.659160000000000082e+03 -9.832857810636160139e+02
1.657559999999999945e+03 -1.074741734888848441e+03
1.655960000000000036e+03 -1.195832512223270896e+03
1.654349999999999909e+03 -1.148433068122649274e+03
1.652750000000000000e+03 -1.107193085122380580e+03
1.651150000000000091e+03 -1.235787925631302642e+03
1.649539999999999964e+03 -1.300491320100001758e+03
1.647940000000000055e+03 -1.483355400274223939e+03
1.646329999999999927e+03 -1.292427217156142433e+03
1.644730000000000018e+03 -1.320960536995673465e+03
1.643119999999999891e+03 -1.402500776290806243e+03
1.641509999999999991e+03 -1.320475021843027207e+03
1.639910000000000082e+03 -1.292811997503980820e+03
1.638299999999999955e+03 -1.464254665469416068e+03
1.636690000000000055e+03 -1.354131339691950416e+03
1.635089999999999918e+03 -1.503571971174322243e+03
1.633480000000000018e+03 -1.396417067810067238e+03
1.631869999999999891e+03 -1.491396170702915697e+03
1.630259999999999991e+03 -1.572209279852850159e+03
1.628650000000000091e+03 -1.534856395259874262e+03
1.627039999999999964e+03 -1.421337516924006195e+03
1.625430000000000064e+03 -1.503552644845221948e+03
1.623819999999999936e+03 -1.675701779023533163e+03
1.622210000000000036e+03 -1.580684919458937657e+03
1.620599999999999909e+03 -1.793002066151446343e+03
1.618990000000000009e+03 -1.702553219101035211e+03
1.617380000000000109e+03 -1.601238378307727544e+03
1.615769999999999982e+03 -1.606957543771517521e+03
1.614160000000000082e+03 -1.673010715492397139e+03
1.612549999999999955e+03 -1.729697893470369308e+03
1.610930000000000064e+03 -1.721282978217328491e+03
1.609319999999999936e+03 -1.568637758810466039e+03
1.607710000000000036e+03 -1.612726545660698321e+03
1.606089999999999918e+03 -1.613512007036886644e+03
1.604480000000000018e+03 -1.699268396502284304e+03
1.602859999999999900e+03 -1.757220638149632578e+03
1.601250000000000000e+03 -1.849044630230193434e+03
1.599630000000000109e+03 -1.618763652148700203e+03
1.598019999999999982e+03 -1.645455246844427165e+03
1.596400000000000091e+03 -1.594741049034091702e+03
1.594789999999999964e+03 -1.827100246344984043e+03
1.593170000000000073e+03 -1.776252828805801983e+03
1.591549999999999955e+03 -1.737738595179725962e+03
1.589940000000000055e+03 -1.716198991463850689e+03
1.588319999999999936e+03 -1.509051538108917157e+03
1.586700000000000045e+03 -1.677537268667085300e+03
1.585079999999999927e+03 -1.645056183138331107e+03
1.583470000000000027e+03 -1.603151374753761047e+03
1.581849999999999909e+03 -1.638537069496174809e+03
1.580230000000000018e+03 -1.587355948151682242e+03
1.578609999999999900e+03 -1.465108010720261518e+03
1.576990000000000009e+03 -1.361393257201951201e+03
1.575369999999999891e+03 -1.447411687596712000e+03
1.573750000000000000e+03 -1.153863301904570108e+03
1.572130000000000109e+03 -1.156548100125510246e+03
1.570500000000000000e+03 -1.396619689468614524e+03
1.568880000000000109e+03 -1.283470443070757028e+03
1.567259999999999991e+03 -1.244354380585991748e+03
1.565640000000000100e+03 -1.316071502014314319e+03
1.564019999999999982e+03 -1.195121807355728379e+03
1.562390000000000100e+03 -1.208156839048428083e+03
1.560769999999999982e+03 -1.124173099771043780e+03
1.559150000000000091e+03 -6.028225444067356875e+02
1.557519999999999982e+03 8.914452448717929656e+01
1.555900000000000091e+03 7.502291244702719268e+02
1.554269999999999982e+03 4.077310654189059278e+02
1.552650000000000091e+03 4.234971002081147162e+01
1.551019999999999982e+03 -4.765134769758333277e+02
1.549400000000000091e+03 -6.952607877551236015e+02
1.547769999999999982e+03 -6.879891026970581152e+02
1.546140000000000100e+03 -7.650497741161489103e+02
1.544519999999999982e+03 -5.485958117447444238e+02
1.542890000000000100e+03 -9.036216111091271159e+02
1.541259999999999991e+03 -8.560797669506755483e+02
1.539640000000000100e+03 -5.719245314285690256e+02
1.538009999999999991e+03 -5.104478152153969859e+02
1.536380000000000109e+03 -5.841034554794023279e+02
1.534750000000000000e+03 -5.256914522205697722e+02
1.533119999999999891e+03 -4.840118054389058670e+02
1.531490000000000009e+03 -4.132645151344149781e+02
1.529859999999999900e+03 -4.267495813070891018e+02
1.528230000000000018e+03 -1.319670039569391520e+02
1.526599999999999909e+03 -3.233167830839665839e+02
1.524970000000000027e+03 -3.013989186881553906e+02
1.523339999999999918e+03 -4.491341076951721334e+01
1.521710000000000036e+03 -3.526025932804986951e+01
1.520069999999999936e+03 -1.128802323133168102e+02
1.518440000000000055e+03 2.845086211647467280e+02
1.516809999999999945e+03 5.846511816564088804e+01
1.515180000000000064e+03 3.255892586893569387e+02
1.513539999999999964e+03 1.457419372960539476e+02
1.511910000000000082e+03 3.133017798563741962e+02
1.510269999999999982e+03 2.100909930274901853e+02
1.508640000000000100e+03 4.710865376244109939e+02
1.507000000000000000e+03 3.634122853599546943e+02
1.505369999999999891e+03 3.507435319934666040e+02
1.503730000000000018e+03 2.769058142934518401e+02
1.502099999999999909e+03 2.368727629635541234e+02
1.500460000000000036e+03 4.855715798279634328e+02
1.498819999999999936e+03 3.386388727430239669e+02
1.497190000000000055e+03 4.607095819634960208e+02
1.495549999999999955e+03 3.338134094429915422e+02
1.493910000000000082e+03 3.688857129731477471e+02
1.492269999999999982e+03 5.214264925539719115e+02
1.490640000000000100e+03 2.758690208385633014e+02
1.489000000000000000e+03 2.073463349838166323e+02
1.487359999999999900e+03 3.920921251797153673e+02
1.485720000000000027e+03 3.435063914262900653e+02
1.484079999999999927e+03 3.239891337235167157e+02
1.482440000000000055e+03 2.619403520714113256e+02
1.480799999999999955e+03 2.943600464699629811e+02
1.479160000000000082e+03 8.614821691918041324e+01
1.477519999999999982e+03 3.040486341904761503e+01
1.475869999999999891e+03 2.763004711485154985e+02
1.474230000000000018e+03 3.226944872866042715e+02
1.472589999999999918e+03 2.092569794753544556e+02
1.470950000000000045e+03 2.922879477147762373e+02
1.469299999999999955e+03 1.607595498773043801e+02
1.467660000000000082e+03 1.283278877549382742e+02
1.466019999999999982e+03 8.676470168323430698e+01
1.464369999999999891e+03 1.776434046912836493e+02
1.462730000000000018e+03 -1.845824117422125710e+02
1.461079999999999927e+03 3.289344985238094523e+02
1.459440000000000055e+03 1.539460517285297101e+02
1.457789999999999964e+03 1.523011692525069520e+02
1.456150000000000091e+03 4.498500920954538742e+02
1.454500000000000000e+03 3.844434168773914280e+02
1.452849999999999909e+03 4.315060553297334991e+02
1.451210000000000036e+03 3.693612413984519662e+02
1.449559999999999945e+03 2.298620871087550768e+02
1.447910000000000082e+03 3.408322464894772565e+02
1.446259999999999991e+03 1.453717195405952225e+02
1.444609999999999900e+03 3.913805062621177058e+02
1.442970000000000027e+03 4.812797427317127585e+02
1.441319999999999936e+03 5.559267367112042848e+02
1.439670000000000073e+03 6.170430443611076043e+02
1.438019999999999982e+03 5.645286656813987065e+02
1.436369999999999891e+03 5.650836006721146987e+02
1.434720000000000027e+03 6.354078493332272046e+02
1.433059999999999945e+03 5.543827960841881577e+02
1.431410000000000082e+03 3.658460921689656971e+02
1.429759999999999991e+03 4.197787019241586677e+02
1.428109999999999900e+03 4.221806253497452417e+02
1.426460000000000036e+03 2.522518624457406986e+02
1.424799999999999955e+03 4.439759005917985633e+02
1.423150000000000091e+03 4.178861851114670571e+02
1.421500000000000000e+03 5.808657833015276992e+02
1.419839999999999918e+03 6.168994453361665364e+02
1.418190000000000055e+03 4.443180909498987603e+02
1.416529999999999973e+03 5.832916431198646023e+02
1.414880000000000109e+03 7.810493361572516733e+02
1.413220000000000027e+03 7.447627784625401546e+02
1.411569999999999936e+03 4.654595189235951693e+02
1.409910000000000082e+03 6.724128513641990139e+02
1.408259999999999991e+03 5.608486392489248828e+02
1.406599999999999909e+03 6.214418618248564599e+02
1.404940000000000055e+03 7.500052407828479772e+02
1.403279999999999973e+03 6.689387761229045282e+02
1.401630000000000109e+03 7.311530789377975452e+02
1.399970000000000027e+03 7.000265044131738250e+02
1.398309999999999945e+03 7.080700862706326006e+02
1.396650000000000091e+03 5.474838245101345819e+02
1.394990000000000009e+03 6.204677191317168763e+02
1.393329999999999927e+03 7.403217701353532902e+02
1.391670000000000073e+03 5.603459775210612861e+02
1.390009999999999991e+03 5.206403412888248567e+02
1.388349999999999909e+03 8.423048614386607369e+02
1.386690000000000055e+03 5.708395379705616506e+02
1.385029999999999973e+03 6.878443708845225046e+02
1.383369999999999891e+03 6.875193601805513026e+02
1.381700000000000045e+03 8.030589663115570147e+02
1.380039999999999964e+03 7.982746910005189420e+02
1.378380000000000109e+03 6.026605720715524512e+02
1.376710000000000036e+03 5.260123404099467734e+02
1.375049999999999955e+03 6.882389568739163224e+02
1.373390000000000100e+03 8.701357297199501772e+02
1.371720000000000027e+03 6.043996602657171024e+02
1.370059999999999945e+03 6.976371685046906350e+02
1.368390000000000100e+03 9.276426822469693434e+02
1.366730000000000018e+03 6.787209258788752777e+02
1.365059999999999945e+03 6.566680228176701348e+02
1.363390000000000100e+03 6.195861239420955826e+02
1.361730000000000018e+03 6.426756819778129284e+02
1.360059999999999945e+03 5.533353662987537973e+02
1.358390000000000100e+03 6.364660548053252569e+02
1.356730000000000018e+03 5.517669272448547417e+02
1.355059999999999945e+03 6.785391989479394397e+02
1.353390000000000100e+03 5.280824748366612766e+02
1.351720000000000027e+03 6.817967549110071559e+02
1.350049999999999955e+03 6.483820391710069089e+02
1.348380000000000109e+03 5.431383276166343421e+02
1.346710000000000036e+03 6.730656202479040076e+02
1.345039999999999964e+03 4.707639170648035361e+02
1.343369999999999891e+03 4.856332180673489347e+02
1.341700000000000045e+03 4.076735232555256516e+02
1.340029999999999973e+03 4.944848326293358696e+02
1.338359999999999900e+03 5.527671461887948681e+02
1.336680000000000064e+03 6.859263862837324268e+02
1.335009999999999991e+03 5.261511333892231050e+02
1.333339999999999918e+03 4.950468846803414635e+02
1.331660000000000082e+03 5.088208405772093101e+02
1.329990000000000009e+03 5.032590254143760831e+02
1.328319999999999936e+03 5.604682144371763570e+02
1.326640000000000100e+03 4.952568861359650327e+02
1.324970000000000027e+03 4.361085087048013520e+02
1.323289999999999964e+03 4.950404668451119505e+02
1.321619999999999891e+03 5.450345229599952290e+02
1.319940000000000055e+03 5.249097675418270228e+02
1.318259999999999991e+03 6.123568692047847435e+02
1.316589999999999918e+03 4.566647882261058840e+02
1.314910000000000082e+03 5.248551763305804343e+02
1.313230000000000018e+03 5.020174215161860047e+02
1.311559999999999945e+03 6.626392034439413692e+02
1.309880000000000109e+03 4.910447350710637693e+02
1.308200000000000045e+03 7.023221237793150067e+02
1.306519999999999982e+03 5.830713695686899882e+02
1.304839999999999918e+03 7.288924724391836207e+02
1.303160000000000082e+03 8.508854323907944490e+02
1.301480000000000018e+03 5.726502494235246559e+02
1.299799999999999955e+03 4.121869235373887932e+02
1.298119999999999891e+03 6.682954547323715815e+02
1.296440000000000055e+03 7.978758430084781139e+02
1.294759999999999991e+03 6.436280883657018421e+02
1.293069999999999936e+03 6.321692160709535528e+02
1.291390000000000100e+03 7.738656033111401484e+02
1.289710000000000036e+03 7.030338476324541261e+02
1.288029999999999973e+03 8.670739490348860272e+02
1.286339999999999918e+03 6.940046462141872325e+02
1.284660000000000082e+03 7.912888894995812734e+02
1.282980000000000018e+03 1.008844989866105607e+03
1.281289999999999964e+03 1.135792971717608452e+03
1.279609999999999900e+03 9.407932139670992910e+02
1.277920000000000073e+03 1.072386195688966836e+03
1.276240000000000009e+03 1.120830579821420542e+03
1.274549999999999955e+03 9.781685614136586082e+02
1.272859999999999900e+03 1.062379258074408426e+03
1.271180000000000064e+03 1.231140068891672854e+03
1.269490000000000009e+03 1.167295765422786644e+03
1.267799999999999955e+03 1.325724177022420918e+03
1.266109999999999900e+03 1.530025303690581495e+03
1.264420000000000073e+03 1.266399145427261828e+03
1.262740000000000009e+03 1.387920952533018863e+03
1.261049999999999955e+03 1.426539794140058802e+03
1.259359999999999900e+03 1.491831350815627957e+03
1.257670000000000073e+03 1.663795622559708136e+03
1.255980000000000018e+03 1.675932609372313891e+03
1.254289999999999964e+03 1.633442311253438675e+03
1.252599999999999909e+03 1.443124728203081759e+03
1.250900000000000091e+03 1.643307621787440439e+03
1.249210000000000036e+03 1.924635899140808760e+03
1.247519999999999982e+03 1.878036891562696837e+03
1.245829999999999927e+03 1.702910599053102487e+03
1.244140000000000100e+03 1.945957021612033714e+03
1.242440000000000055e+03 2.016206074685014755e+03
1.240750000000000000e+03 2.019998357647658850e+03
1.239059999999999945e+03 2.381063355678827065e+03
1.237359999999999900e+03 2.209432277570038423e+03
1.235670000000000073e+03 2.250343136004928965e+03
1.233970000000000027e+03 2.280958781379162247e+03
1.232279999999999973e+03 2.529815500217777299e+03
1.230579999999999927e+03 2.516377869075044146e+03
1.228880000000000109e+03 2.578113816080152901e+03
1.227190000000000055e+03 2.654589540657674661e+03
1.225490000000000009e+03 2.801872211145815527e+03
1.223789999999999964e+03 3.128828459781780111e+03
1.222089999999999918e+03 2.955058286565585149e+03
1.220400000000000091e+03 3.254026162217222009e+03
1.218700000000000045e+03 3.201102712484058429e+03
1.217000000000000000e+03 3.407352840898722206e+03
1.215299999999999955e+03 3.614976547461221344e+03
1.213599999999999909e+03 3.937373832171557297e+03
1.211900000000000091e+03 4.045044695029715513e+03
1.210200000000000045e+03 4.023289136035713454e+03
1.208500000000000000e+03 4.304407155189539480e+03
1.206799999999999955e+03 4.451698752491203777e+03
1.205099999999999909e+03 4.901763927940704889e+03
1.203390000000000100e+03 5.009442538944364060e+03
1.201690000000000055e+03 5.215455303502156312e+03
1.199990000000000009e+03 5.506741646207789017e+03
1.198289999999999964e+03 5.516001567061244714e+03
1.196579999999999927e+03 6.193176657265365066e+03
1.194880000000000109e+03 6.416684167227129365e+03
1.193170000000000073e+03 6.713507714710780419e+03
1.191470000000000027e+03 7.079262813780838769e+03
1.189759999999999991e+03 7.732334818544015434e+03
1.188059999999999945e+03 7.974637506722370745e+03
1.186349999999999909e+03 8.454357968765070837e+03
1.184650000000000091e+03 8.783008246051729657e+03
1.182940000000000055e+03 9.498377165373956814e+03
1.181230000000000018e+03 9.825320531015240704e+03
1.179529999999999973e+03 1.052119240837066536e+04
1.177819999999999936e+03 1.085968423129147050e+04
1.176109999999999900e+03 1.150105050053133891e+04
1.174400000000000091e+03 1.204419121609025387e+04
1.172690000000000055e+03 1.241150637796824594e+04
1.170980000000000018e+03 1.343119598616528674e+04
1.169269999999999982e+03 1.392986004068137845e+04
1.167559999999999945e+03 1.463299854151653562e+04
1.165849999999999909e+03 1.514011148867074735e+04
1.164140000000000100e+03 1.568649888214402017e+04
1.162430000000000064e+03 1.655846072193634973e+04
1.160720000000000027e+03 1.742869700804773674e+04
1.159009999999999991e+03 1.838480774047818340e+04
1.157289999999999964e+03 1.898724451349427909e+04
1.155579999999999927e+03 1.995290457392143435e+04
1.153869999999999891e+03 2.058253908066764052e+04
1.152160000000000082e+03 2.146734803373291288e+04
1.150440000000000055e+03 2.243498477136415386e+04
1.148730000000000018e+03 2.330154305242612827e+04
1.147009999999999991e+03 2.406142999131722536e+04
1.145299999999999955e+03 2.527143760037590255e+04
1.143579999999999927e+03 2.591997474052683538e+04
1.141869999999999891e+03 2.706793167758222262e+04
1.140150000000000091e+03 2.782661901899301301e+04
1.138430000000000064e+03 2.876848167998598728e+04
1.136720000000000027e+03 2.969546282671573499e+04
1.135000000000000000e+03 3.109657568896855082e+04
1.133279999999999973e+03 3.190496387080357817e+04
1.131559999999999945e+03 3.282932737222079595e+04
1.129839999999999918e+03 3.401376619322020997e+04
1.128130000000000109e+03 3.522682131297960586e+04
1.126410000000000082e+03 3.667501033523886872e+04
1.124690000000000055e+03 3.772867467708032200e+04
1.122970000000000027e+03 3.913361433850397589e+04
1.121250000000000000e+03 4.047112931950981874e+04
1.119519999999999982e+03 4.137098083044282248e+04
1.117799999999999955e+03 4.261454688851761603e+04
1.116079999999999927e+03 4.458668826617459854e+04
1.114359999999999900e+03 4.566360496341377439e+04
1.112640000000000100e+03 4.664729698023515812e+04
1.110910000000000082e+03 4.816762771905238333e+04
1.109190000000000055e+03 5.001357081294270029e+04
1.107470000000000027e+03 5.119018922641520476e+04
1.105740000000000009e+03 5.286964767814317020e+04
1.104019999999999982e+03 5.397851716868462972e+04
1.102289999999999964e+03 5.594512757583658095e+04
1.100569999999999936e+03 5.697174814344698825e+04
1.098839999999999918e+03 5.915861050602292380e+04
1.097119999999999891e+03 6.098518215070226870e+04
1.095390000000000100e+03 6.264899646870220022e+04
1.093660000000000082e+03 6.384878698463939509e+04
1.091940000000000055e+03 6.617988546387440874e+04
1.090210000000000036e+03 6.656812793523559230e+04
1.088480000000000018e+03 6.980344660453402321e+04
1.086750000000000000e+03 7.184414147176968982e+04
1.085019999999999982e+03 7.348621253694262123e+04
1.083299999999999955e+03 7.568138936570682563e+04
1.081569999999999936e+03 7.803631238630373264e+04
1.079839999999999918e+03 7.947461160483790445e+04
1.078109999999999900e+03 8.194098702130932361e+04
1.076369999999999891e+03 8.389551083186597680e+04
1.074640000000000100e+03 8.649203908466239227e+04
1.072910000000000082e+03 8.903964353539605509e+04
1.071180000000000064e+03 9.054432418406696524e+04
1.069450000000000045e+03 9.330508103067512275e+04
1.067720000000000027e+03 9.564891407522052759e+04
1.065980000000000018e+03 9.871789815910016478e+04
1.064250000000000000e+03 1.011608840399705805e+05
1.062509999999999991e+03 1.034150218436221767e+05
1.060779999999999973e+03 1.065081605608175887e+05
1.059049999999999955e+03 1.091663754759502481e+05
1.057309999999999945e+03 1.110357436377615668e+05
1.055579999999999927e+03 1.136051113892192370e+05
1.053839999999999918e+03 1.172876332708025293e+05
1.052099999999999909e+03 1.197482322337700170e+05
1.050369999999999891e+03 1.228218294599404326e+05
1.048630000000000109e+03 1.252795821426798939e+05
1.046890000000000100e+03 1.282224119068035798e+05
1.045150000000000091e+03 1.309523187523114902e+05
1.043420000000000073e+03 1.347182220915824000e+05
1.041680000000000064e+03 1.376862826568622841e+05
1.039940000000000055e+03 1.411584203035263345e+05
1.038200000000000045e+03 1.439066350315746386e+05
1.036460000000000036e+03 1.473559268410071381e+05
1.034720000000000027e+03 1.501832957318238623e+05
1.032980000000000018e+03 1.520117417040247819e+05
1.031240000000000009e+03 1.559742647576099262e+05
1.029500000000000000e+03 1.600798648925792950e+05
1.027750000000000000e+03 1.621926266835221904e+05
1.026009999999999991e+03 1.667493814242564258e+05
1.024269999999999982e+03 1.689602132463749149e+05
1.022529999999999973e+03 1.727731221498775703e+05
1.020779999999999973e+03 1.756241944838855998e+05
1.019039999999999964e+03 1.793732579931531800e+05
1.017299999999999955e+03 1.823623985838049557e+05
1.015549999999999955e+03 1.853147039364974189e+05
1.013809999999999945e+03 1.891739991329140612e+05
1.012059999999999945e+03 1.927974599799103162e+05
1.010320000000000050e+03 1.958599097820918832e+05
1.008570000000000050e+03 1.989925261233918718e+05
1.006820000000000050e+03 2.016792204346149811e+05
1.005080000000000041e+03 2.047389023669420858e+05
1.003330000000000041e+03 2.074167521724689577e+05
1.001580000000000041e+03 2.100136799479188921e+05
9.998319999999999936e+02 2.133646673565082019e+05
9.980839999999999463e+02 2.159737325569054519e+05
9.963350000000000364e+02 2.182878848064964695e+05
9.945850000000000364e+02 2.213901242388675746e+05
9.928350000000000364e+02 2.239844416411618004e+05
9.910850000000000364e+02 2.266138370133790886e+05
9.893350000000000364e+02 2.269253103555194684e+05
9.875839999999999463e+02 2.312848711477654288e+05
9.858319999999999936e+02 2.333765195238560264e+05
9.840810000000000173e+02 2.365142364787957340e+05
9.823279999999999745e+02 2.388020507207629271e+05
9.805760000000000218e+02 2.402929335415792011e+05
9.788229999999999791e+02 2.404529042138711084e+05
9.770689999999999600e+02 2.432689628715305007e+05
9.753160000000000309e+02 2.438450900634083955e+05
9.735620000000000118e+02 2.441643053299404855e+05
9.718070000000000164e+02 2.472706088050949620e+05
9.700520000000000209e+02 2.482999906963514804e+05
9.682970000000000255e+02 2.486234510037099535e+05
9.665410000000000537e+02 2.493729997430985677e+05
9.647849999999999682e+02 2.495606269879777392e+05
9.630280000000000200e+02 2.497223428437150142e+05
9.612709999999999582e+02 2.501861372943822644e+05
9.595140000000000100e+02 2.503020103399795480e+05
9.577559999999999718e+02 2.508229722200972028e+05
9.559980000000000473e+02 2.515010127846352407e+05
9.542390000000000327e+02 2.497561423627253971e+05
9.524800000000000182e+02 2.492883507147771888e+05
9.507210000000000036e+02 2.472616378407906450e+05
9.489610000000000127e+02 2.463390142042730877e+05
9.472000000000000455e+02 2.455544799396510352e+05
9.454400000000000546e+02 2.425370140750500723e+05
9.436789999999999736e+02 2.410236376719877589e+05
9.419170000000000300e+02 2.391463508649669238e+05
9.401549999999999727e+02 2.366391431008371874e+05
9.383930000000000291e+02 2.343900143795984914e+05
9.366309999999999718e+02 2.319559647012508940e+05
9.348680000000000518e+02 2.298470048881033435e+05
9.331040000000000418e+02 2.256361350748114928e+05
9.313400000000000318e+02 2.232033444839515723e+05
9.295760000000000218e+02 2.196476331155236112e+05
9.278110000000000355e+02 2.160970119715046894e+05
9.260460000000000491e+02 2.134254701397645404e+05
9.242809999999999491e+02 2.093260076203031349e+05
9.225149999999999864e+02 2.054406355499314959e+05
9.207480000000000473e+02 2.013433540635343816e+05
9.189819999999999709e+02 1.955831408424772671e+05
9.172150000000000318e+02 1.929290182953433541e+05
9.154470000000000027e+02 1.888789865570937982e+05
9.136789999999999736e+02 1.838300344009689288e+05
9.119109999999999445e+02 1.802551618269687751e+05
9.101420000000000528e+02 1.758033802869155188e+05
9.083730000000000473e+02 1.712636784190374310e+05
9.066029999999999518e+02 1.664540677652581944e+05
9.048329999999999700e+02 1.615355368737555400e+05
9.030629999999999882e+02 1.577990857445294678e+05
9.012920000000000300e+02 1.531577260547193582e+05
8.995209999999999582e+02 1.479474462173382053e+05
8.977490000000000236e+02 1.434162579997285502e+05
8.959769999999999754e+02 1.396421497247510997e+05
8.942050000000000409e+02 1.346241213924057956e+05
8.924320000000000164e+02 1.298711849054038030e+05
8.906589999999999918e+02 1.254843284512881364e+05
8.888849999999999909e+02 1.224755640230750141e+05
8.871109999999999900e+02 1.176508797180533293e+05
8.853360000000000127e+02 1.126532876195952704e+05
8.835620000000000118e+02 1.090027636061216472e+05
8.817859999999999445e+02 1.053823440633213904e+05
8.800109999999999673e+02 1.018339926055055694e+05
8.782340000000000373e+02 9.827474588958383538e+04
8.764579999999999700e+02 9.493156725864656619e+04
8.746810000000000400e+02 9.111248128630754945e+04
8.729039999999999964e+02 8.909747570838069078e+04
8.711259999999999764e+02 8.595256297001871280e+04
8.693479999999999563e+02 8.292173071657764376e+04
8.675689999999999600e+02 8.004499148376985977e+04
8.657899999999999636e+02 7.838353282644269348e+04
8.640109999999999673e+02 7.579795474459615070e+04
8.622309999999999945e+02 7.286396990984572039e+04
8.604510000000000218e+02 7.082166574118653079e+04
8.586699999999999591e+02 6.937995500089555571e+04
8.568890000000000100e+02 6.742522501735732658e+04
8.551069999999999709e+02 6.560488864356130944e+04
8.533250000000000455e+02 6.387243311723045190e+04
8.515430000000000064e+02 6.281275843836474814e+04
8.497599999999999909e+02 6.126697759608598426e+04
8.479769999999999754e+02 5.979357769203575299e+04
8.461939999999999600e+02 5.876665872621401650e+04
8.444099999999999682e+02 5.746423382395129011e+04
8.426259999999999764e+02 5.626198995073133119e+04
8.408410000000000082e+02 5.555764032274983765e+04
8.390560000000000400e+02 5.520527181467632181e+04
8.372699999999999818e+02 5.423009773362257692e+04
8.354840000000000373e+02 5.343600486339290364e+04
8.336970000000000027e+02 5.268150660206615430e+04
8.319109999999999445e+02 5.205487619895547687e+04
8.301230000000000473e+02 5.187895398478602146e+04
8.283360000000000127e+02 5.193399962883266562e+04
8.265480000000000018e+02 5.079234015475966589e+04
8.247590000000000146e+02 5.126987569913216430e+04
8.229700000000000273e+02 5.096749272738262516e+04
8.211810000000000400e+02 5.118239123951102374e+04
8.193909999999999627e+02 5.107728499782075232e+04
8.176009999999999991e+02 5.164976033112821460e+04
8.158099999999999454e+02 5.152523109290748107e+04
8.140190000000000055e+02 5.195788352085520455e+04
8.122279999999999518e+02 5.234851761497138068e+04
8.104360000000000355e+02 5.326374736554977426e+04
8.086440000000000055e+02 5.374195887351826968e+04
8.068509999999999991e+02 5.467056622044315009e+04
8.050579999999999927e+02 5.532965541603066958e+04
8.032649999999999864e+02 5.707302646028080198e+04
8.014710000000000036e+02 5.770779357173237076e+04
7.996760000000000446e+02 5.951685688740873593e+04
7.978819999999999482e+02 6.058968792450694309e+04
7.960860000000000127e+02 6.212172961284290795e+04
7.942910000000000537e+02 6.374923902260069735e+04
7.924950000000000045e+02 6.538434491078283463e+04
7.906979999999999791e+02 6.710094741456546762e+04
7.889020000000000437e+02 6.855111759404453915e+04
7.871040000000000418e+02 7.075599906491673028e+04
7.853070000000000164e+02 7.195024821148536284e+04
7.835090000000000146e+02 7.386289424815954408e+04
7.817100000000000364e+02 7.651013731226816890e+04
7.799109999999999445e+02 7.740516277374398487e+04
7.781119999999999663e+02 7.913067063258700364e+04
7.763120000000000118e+02 8.101197574787327903e+04
7.745119999999999436e+02 8.271676335215574363e+04
7.727110000000000127e+02 8.413764839619032864e+04
7.709099999999999682e+02 8.573561602090099768e+04
7.691090000000000373e+02 8.725066622628775076e+04
7.673070000000000164e+02 8.887381410069004050e+04
7.655040000000000191e+02 9.063005978174225311e+04
7.637019999999999982e+02 9.184837304683648108e+04
7.618990000000000009e+02 9.346978421036238433e+04
7.600950000000000273e+02 9.466129341003077570e+04
7.582910000000000537e+02 9.623288546572045016e+04
7.564869999999999663e+02 9.771156037743143679e+04
7.546820000000000164e+02 9.860833355493018462e+04
7.528769999999999527e+02 9.994818968033380224e+04
7.510710000000000264e+02 1.011971442553432717e+05
7.492649999999999864e+02 1.023721818701921147e+05
7.474579999999999700e+02 1.036273181185667054e+05
7.456509999999999536e+02 1.047305374987660762e+05
7.438440000000000509e+02 1.062378400107902416e+05
7.420359999999999445e+02 1.079802413863673282e+05
7.402279999999999518e+02 1.082097259858055477e+05
7.384189999999999827e+02 1.097183096329202817e+05
7.366100000000000136e+02 1.109949765959833894e+05
7.348010000000000446e+02 1.116827268749948707e+05
7.329909999999999854e+02 1.137215764319646551e+05
7.311810000000000400e+02 1.151165093970209855e+05
7.293700000000000045e+02 1.156115418243628810e+05
7.275589999999999691e+02 1.163866577519804123e+05
7.257469999999999573e+02 1.181958733263126051e+05
7.239349999999999454e+02 1.192431724931604549e+05
7.221230000000000473e+02 1.200505552525239473e+05
7.203099999999999454e+02 1.223940378892657754e+05
7.184969999999999573e+02 1.236336042108141701e+05
7.166829999999999927e+02 1.251652705943736946e+05
7.148690000000000282e+02 1.255940207550816558e+05
7.130539999999999736e+02 1.275888711625353317e+05
7.112390000000000327e+02 1.284228054395302024e+05
7.094239999999999782e+02 1.301528235860662826e+05
7.076079999999999472e+02 1.316889422103936377e+05
7.057920000000000300e+02 1.325361447967058921e+05
7.039750000000000227e+02 1.334204480457477330e+05
7.021580000000000155e+02 1.344688353492690658e+05
7.003400000000000318e+02 1.366603235005601309e+05
6.985220000000000482e+02 1.378188957988761831e+05
6.967039999999999509e+02 1.399475522442172805e+05
6.948849999999999909e+02 1.395643097687555419e+05
6.930660000000000309e+02 1.421701515329152462e+05
6.912459999999999809e+02 1.430700945615159580e+05
6.894260000000000446e+02 1.440471219223855005e+05
6.876059999999999945e+02 1.462292336155238445e+05
6.857849999999999682e+02 1.476574468047852570e+05
6.839629999999999654e+02 1.477287616292553139e+05
6.821420000000000528e+02 1.497821437148127879e+05
6.803189999999999600e+02 1.511296448313443689e+05
6.784969999999999573e+02 1.534722132089633378e+05
6.766730000000000018e+02 1.542329008959567582e+05
6.748500000000000227e+02 1.561796558440375957e+05
6.730259999999999536e+02 1.573905128913276712e+05
6.712019999999999982e+02 1.590444546419852413e+05
6.693769999999999527e+02 1.613194986776050646e+05
6.675520000000000209e+02 1.628216275094943121e+05
6.657259999999999991e+02 1.650798588122006622e+05
6.638999999999999773e+02 1.669161750041293271e+05
6.620729999999999791e+02 1.692935938528317783e+05
6.602459999999999809e+02 1.720200976837603084e+05
6.584189999999999827e+02 1.736906864969149465e+05
6.565910000000000082e+02 1.760503781994164747e+05
6.547630000000000337e+02 1.786671549771988357e+05
6.529339999999999691e+02 1.800300348304884974e+05
6.511050000000000182e+02 1.830459998521645612e+05
6.492749999999999773e+02 1.847160681356101122e+05
6.474450000000000500e+02 1.891482216805986827e+05
6.456150000000000091e+02 1.922134604871302145e+05
6.437839999999999918e+02 1.950478027883862960e+05
6.419529999999999745e+02 1.967902304443928006e+05
6.401209999999999809e+02 2.002137617815897102e+05
6.382889999999999873e+02 2.039783785667954944e+05
6.364560000000000173e+02 2.078030992197593150e+05
6.346230000000000473e+02 2.116479054140413355e+05
6.327899999999999636e+02 2.126417971496415557e+05
6.309560000000000173e+02 2.173317929863367463e+05
6.291219999999999573e+02 2.203938744577103644e+05
6.272870000000000346e+02 2.251730602169503691e+05
6.254519999999999982e+02 2.284343317042799317e+05
6.236159999999999854e+02 2.325477076663490734e+05
6.217799999999999727e+02 2.366631694499698933e+05
6.199439999999999600e+02 2.398277170551423042e+05
6.181069999999999709e+02 2.447153693687731575e+05
6.162690000000000055e+02 2.500911265311700990e+05
6.144320000000000164e+02 2.545639507216994243e+05
6.125929999999999609e+02 2.581818988818496000e+05
6.107549999999999955e+02 2.647669140701321303e+05
6.089160000000000537e+02 2.695670343879488646e+05
6.070760000000000218e+02 2.748662599757602438e+05
6.052359999999999900e+02 2.793295717594806920e+05
6.033959999999999582e+02 2.845529697391102673e+05
6.015549999999999500e+02 2.908514732229624642e+05
5.997140000000000555e+02 2.967000629964404507e+05
5.978719999999999573e+02 3.023817584616253152e+05
5.960299999999999727e+02 3.077765403102035052e+05
5.941870000000000118e+02 3.154784280380746932e+05
5.923440000000000509e+02 3.202024022431577323e+05
5.905009999999999764e+02 3.272634629254526808e+05
5.886570000000000391e+02 3.315006297216504463e+05
5.868120000000000118e+02 3.353029027725934284e+05
5.849679999999999609e+02 3.434052427579012001e+05
5.831219999999999573e+02 3.461317088694843114e+05
5.812770000000000437e+02 3.518962419154321542e+05
5.794310000000000400e+02 3.585058814979626331e+05
5.775839999999999463e+02 3.558286277580707683e+05
5.757369999999999663e+02 3.649094608711740002e+05
5.738899999999999864e+02 3.673343808372722706e+05
5.720420000000000300e+02 3.705884077160673332e+05
5.701939999999999600e+02 3.722575215419305605e+05
5.683450000000000273e+02 3.749117424686877057e+05
5.664959999999999809e+02 3.772390504366370151e+05
5.646459999999999582e+02 3.765024656937792315e+05
5.627960000000000491e+02 3.770389680862884852e+05
5.609460000000000264e+02 3.792935576141648926e+05
5.590950000000000273e+02 3.801432546667351853e+05
5.572430000000000518e+02 3.801330593853762839e+05
5.553909999999999627e+02 3.822229514278871357e+05
5.535389999999999873e+02 3.810779307942676824e+05
5.516870000000000118e+02 3.793779974845180404e+05
5.498329999999999700e+02 3.794951927488791407e+05
5.479800000000000182e+02 3.789634548534810310e+05
5.461259999999999764e+02 3.798788250957922428e+05
5.442709999999999582e+02 3.795503036174188601e+05
5.424160000000000537e+02 3.797978697460510302e+05
5.405610000000000355e+02 3.794295234816888114e+05
5.387050000000000409e+02 3.796522857327794773e+05
5.368490000000000464e+02 3.807061356853562174e+05
5.349919999999999618e+02 3.803090943423976423e+05
5.331349999999999909e+02 3.817211407954564784e+05
5.312780000000000200e+02 3.801972750445327256e+05
5.294199999999999591e+02 3.792495182344657951e+05
5.275610000000000355e+02 3.807808705071673030e+05
5.257019999999999982e+02 3.809813107651016908e+05
5.238429999999999609e+02 3.814588390082689584e+05
5.219829999999999472e+02 3.809644765708513441e+05
5.201230000000000473e+02 3.794582022133507999e+05
5.182619999999999436e+02 3.769480373646845110e+05
5.164009999999999536e+02 3.763089606906702975e+05
5.145399999999999636e+02 3.760059721913081594e+05
5.126779999999999973e+02 3.750690934376815567e+05
5.108149999999999977e+02 3.733273245720076375e+05
5.089519999999999982e+02 3.703706440706086578e+05
5.070889999999999986e+02 3.682200519334846758e+05
5.052250000000000227e+02 3.682045699214691995e+05
5.033609999999999900e+02 3.637421763686164049e+05
5.014959999999999809e+02 3.649918931306987652e+05
4.996309999999999718e+02 3.616446984468825394e+05
4.977649999999999864e+02 3.608676142679298064e+05
4.958990000000000009e+02 3.588006187380681513e+05
4.940330000000000155e+02 3.578967118572976324e+05
4.921659999999999968e+02 3.547789157189282705e+05
4.902989999999999782e+02 3.538102083246906404e+05
4.884309999999999832e+02 3.515266118629862322e+05
4.865629999999999882e+02 3.502331042405049666e+05
4.846940000000000168e+02 3.488757077407907927e+05
4.828249999999999886e+02 3.470944001754422206e+05
4.809549999999999841e+02 3.455682039231965318e+05
4.790849999999999795e+02 3.449940967005096609e+05
4.772139999999999986e+02 3.418101009813632118e+05
4.753430000000000177e+02 3.381751943870198447e+05
4.734719999999999800e+02 3.374243769174796762e+05
4.716000000000000227e+02 3.332106711896540946e+05
4.697280000000000086e+02 3.329470546819267911e+05
4.678550000000000182e+02 3.310775501065553981e+05
4.659820000000000277e+02 3.297511348466283525e+05
4.641080000000000041e+02 3.267878317098002881e+05
4.622339999999999804e+02 3.236786179838135140e+05
4.603589999999999804e+02 3.222135165717706550e+05
4.584839999999999804e+02 3.200665046660170192e+05
4.566089999999999804e+02 3.191175822665527230e+05
4.547330000000000041e+02 3.172117724197157077e+05
4.528570000000000277e+02 3.162220521746667800e+05
4.509800000000000182e+02 3.138244446732937358e+05
4.491019999999999754e+02 3.115249500589594245e+05
4.472250000000000227e+02 3.098115220000497065e+05
4.453460000000000036e+02 3.072932302091064048e+05
4.434680000000000177e+02 3.078360049735876382e+05
4.415889999999999986e+02 3.050498929119860404e+05
4.397090000000000032e+02 3.027478941678171395e+05
4.378290000000000077e+02 3.009099854079408105e+05
4.359490000000000123e+02 2.997301666323571699e+05
4.340679999999999836e+02 2.967764614135261509e+05
4.321859999999999786e+02 2.950228698951160768e+05
4.303050000000000068e+02 2.927733448842666112e+05
4.284220000000000255e+02 2.925829573858471704e+05
4.265389999999999873e+02 2.896576601591333747e+05
4.246560000000000059e+02 2.897554532041252824e+05
4.227730000000000246e+02 2.880903365208228352e+05
4.208890000000000100e+02 2.860063340172177413e+05
4.190040000000000191e+02 2.852114458372074296e+05
4.171190000000000282e+02 2.838946481207660399e+05
4.152330000000000041e+02 2.834239649198845727e+05
4.133469999999999800e+02 2.778533722785800928e+05
4.114610000000000127e+02 2.810658701968526584e+05
4.095740000000000123e+02 2.802784828707688139e+05
4.076870000000000118e+02 2.806691862003208953e+05
4.057989999999999782e+02 2.799790044776854338e+05
4.039110000000000014e+02 2.785479135067957686e+05
4.020219999999999914e+02 2.770779376759891747e+05
4.001329999999999814e+02 2.753990526930891792e+05
3.982429999999999950e+02 2.756952830426447326e+05
3.963530000000000086e+02 2.754506043363186182e+05
3.944630000000000223e+02 2.750610165741107776e+05
3.925720000000000027e+02 2.737275443849514122e+05
3.906800000000000068e+02 2.741991879132726463e+05
3.887880000000000109e+02 2.723949225782883004e+05
3.868960000000000150e+02 2.720707483799984329e+05
3.850029999999999859e+02 2.711636901400366914e+05
3.831100000000000136e+02 2.726957231331338407e+05
3.812160000000000082e+02 2.709908722773388727e+05
3.793220000000000027e+02 2.718971127510182559e+05
3.774270000000000209e+02 2.722004695686872583e+05
3.755319999999999823e+02 2.716189178122968297e+05
3.736370000000000005e+02 2.715184574818470282e+05
3.717400000000000091e+02 2.701061388959200704e+05
3.698439999999999941e+02 2.709008867214184138e+05
3.679470000000000027e+02 2.696697513252465287e+05
3.660489999999999782e+02 2.689147328522949247e+05
3.641519999999999868e+02 2.696167807424717466e+05
3.622529999999999859e+02 2.708489710533266771e+05
3.603539999999999850e+02 2.703102531764965388e+05
3.584549999999999841e+02 2.698486271119813900e+05
3.565550000000000068e+02 2.691991184056886123e+05
3.546549999999999727e+02 2.699437016084317002e+05
3.527540000000000191e+02 2.699974023628898431e+05
3.508530000000000086e+02 2.697651951231557177e+05
3.489510000000000218e+02 2.709101056287311949e+05
3.470489999999999782e+02 2.713491082369370852e+05
3.451469999999999914e+02 2.694602029477733886e+05
3.432440000000000282e+02 2.698884156460398226e+05
3.413399999999999750e+02 2.698107464770850493e+05
3.394359999999999786e+02 2.705511696045588469e+05
3.375319999999999823e+02 2.702336850284613320e+05
3.356270000000000095e+02 2.706213188275176217e+05
3.337219999999999800e+02 2.703230450199780753e+05
3.318159999999999741e+02 2.699338897815942764e+05
3.299089999999999918e+02 2.695938532579439925e+05
3.280029999999999859e+02 2.705468830489472020e+05
3.260950000000000273e+02 2.710660579731670441e+05
3.241879999999999882e+02 2.707882992120403796e+05
3.222799999999999727e+02 2.709116594569556182e+05
3.203709999999999809e+02 2.721621388536433224e+05
3.184619999999999891e+02 2.709417110321462969e+05
3.165520000000000209e+02 2.741294025568309589e+05
3.146419999999999959e+02 2.729881869605610264e+05
3.127320000000000277e+02 2.741460642433364410e+05
3.108210000000000264e+02 2.724250611154324724e+05
3.089089999999999918e+02 2.738061777228087885e+05
3.069970000000000141e+02 2.753503874038433423e+05
3.050849999999999795e+02 2.756656901585361920e+05
3.031720000000000255e+02 2.758471128919028561e+05
3.012590000000000146e+02 2.760676287963105715e+05
2.993450000000000273e+02 2.749802648742086603e+05
2.974300000000000068e+02 2.768320212717858958e+05
2.955160000000000196e+02 2.756548439353634021e+05
2.936000000000000227e+02 2.760638141648191377e+05
2.916850000000000023e+02 2.764328506602751440e+05
2.897690000000000055e+02 2.760670077679407550e+05
2.878519999999999754e+02 2.737902856341574807e+05
2.859350000000000023e+02 2.755836570614559460e+05
2.840169999999999959e+02 2.756061494425295969e+05
2.820989999999999895e+02 2.750607354823222850e+05
2.801800000000000068e+02 2.753694426712159766e+05
2.782610000000000241e+02 2.772062436165171675e+05
2.763419999999999845e+02 2.766761383182257996e+05
2.744220000000000255e+02 2.764891544133199495e+05
2.725009999999999764e+02 2.765912920484467177e+05
2.705799999999999841e+02 2.766125236355104134e+05
2.686589999999999918e+02 2.774178491745110368e+05
2.667370000000000232e+02 2.768082964980834513e+05
2.648149999999999977e+02 2.770668378714338760e+05
2.628919999999999959e+02 2.777735012250892469e+05
2.609689999999999941e+02 2.790592587264147005e+05
2.590450000000000159e+02 2.781791384038800024e+05
2.571209999999999809e+02 2.781991123269583331e+05
2.551959999999999980e+02 2.787482086221133941e+05
2.532709999999999866e+02 2.810613992608754197e+05
2.513449999999999989e+02 2.813057124677527463e+05
2.494190000000000111e+02 2.828121201162818470e+05
2.474919999999999902e+02 2.820496505290667992e+05
2.455649999999999977e+02 2.836322754815991502e+05
2.436370000000000005e+02 2.845840233946297085e+05
2.417090000000000032e+02 2.849598659455543384e+05
2.397800000000000011e+02 2.861058316533213365e+05
2.378509999999999991e+02 2.868938920971799525e+05
2.359219999999999970e+02 2.872490472771301866e+05
2.339919999999999902e+02 2.890923258594803629e+05
2.320610000000000070e+02 2.896417279916412663e+05
2.301299999999999955e+02 2.896262250564416172e+05
2.281990000000000123e+02 2.900568170538814738e+05
2.262669999999999959e+02 2.910175328469442902e+05
2.243340000000000032e+02 2.931183725831935881e+05
2.224010000000000105e+02 2.934843074488338898e+05
2.204679999999999893e+02 2.935893374438651954e+05
2.185339999999999918e+02 2.952274916281498154e+05
2.165999999999999943e+02 2.933177410402775276e+05
2.146649999999999920e+02 2.941141148386137211e+05
2.127299999999999898e+02 2.959835839632961433e+05
2.107940000000000111e+02 2.970881776712440769e+05
2.088569999999999993e+02 2.971268961103266920e+05
2.069209999999999923e+02 2.975116807173647685e+05
2.049830000000000041e+02 2.976016195590072311e+05
2.030449999999999875e+02 2.975286540228106314e+05
2.011069999999999993e+02 2.981207841087749111e+05
1.991680000000000064e+02 2.986640393698123517e+05
1.972290000000000134e+02 2.994303903517174767e+05
1.952899999999999920e+02 2.998768370544902864e+05
1.933489999999999895e+02 2.989794388802281464e+05
1.914089999999999918e+02 3.001631068739214097e+05
1.894670000000000130e+02 3.012519302870055544e+05
1.875260000000000105e+02 3.013008198680451023e+05
1.855840000000000032e+02 3.040988352662735269e+05
1.836409999999999911e+02 3.041339766300182673e+05
1.816980000000000075e+02 3.037122141099668224e+05
1.797539999999999907e+02 3.051565777533034561e+05
1.778100000000000023e+02 3.070770376118051936e+05
1.758650000000000091e+02 3.086156238316686358e+05
1.739199999999999875e+02 3.094713063657094608e+05
1.719749999999999943e+02 3.100040852139277267e+05
1.700289999999999964e+02 3.107519906711018411e+05
1.680819999999999936e+02 3.130670228858649498e+05
1.661349999999999909e+02 3.121441516129826778e+05
1.641870000000000118e+02 3.170154072959683836e+05
1.622390000000000043e+02 3.158617595904737827e+05
1.602909999999999968e+02 3.191292084964988753e+05
1.583420000000000130e+02 3.202317846063681645e+05
1.563919999999999959e+02 3.209874880689437268e+05
1.544420000000000073e+02 3.236432883415216929e+05
1.524919999999999902e+02 3.248231854241021792e+05
1.505409999999999968e+02 3.253392101076196996e+05
1.485889999999999986e+02 3.268163625410890672e+05
1.466370000000000005e+02 3.261246119832473923e+05
1.446850000000000023e+02 3.277709584340946167e+05
1.427319999999999993e+02 3.302854328833791078e+05
1.407779999999999916e+02 3.328320354802684742e+05
1.388240000000000123e+02 3.336797352847369038e+05
1.368700000000000045e+02 3.323835322967843385e+05
1.349149999999999920e+02 3.323594577051766682e+05
1.329590000000000032e+02 3.338295116592341219e+05
1.310029999999999859e+02 3.348616630199644715e+05
1.290469999999999970e+02 3.374849117873676587e+05
1.270900000000000034e+02 3.366222893494306481e+05
1.251320000000000050e+02 3.376227958556264639e+05
1.231740000000000066e+02 3.383903999677926186e+05
1.212159999999999940e+02 3.378171016859291703e+05
1.192570000000000050e+02 3.362929325974477106e+05
1.172980000000000018e+02 3.364398612146617961e+05
1.153379999999999939e+02 3.340349192247589817e+05
1.133769999999999953e+02 3.304721067774416297e+05
1.114159999999999968e+02 3.293953922354227980e+05
1.094549999999999983e+02 3.315377755987024284e+05
1.074929999999999950e+02 3.292962887541985256e+05
1.055300000000000011e+02 3.227789318517661886e+05
1.035669999999999931e+02 3.141046730544389575e+05
1.016039999999999992e+02 3.067485123622168903e+05
9.963989999999999725e+01 2.990214850706385914e+05
9.767539999999999623e+01 2.942755688488969463e+05
9.571040000000000703e+01 2.939347669757012045e+05
9.374490000000000123e+01 2.957990795260935556e+05
9.177899999999999636e+01 2.969905033464347362e+05
8.981250000000000000e+01 2.968260449641991290e+05
8.784550000000000125e+01 2.966537012307911064e+05
8.587800000000000011e+01 2.964154722213290515e+05
8.390999999999999659e+01 2.908623580109505565e+05
8.194150000000000489e+01 2.834383586748122470e+05
7.997239999999999327e+01 2.743834775468490552e+05
7.800289999999999679e+01 2.689747081897517201e+05
7.603289999999999793e+01 2.615220539324803394e+05
7.406239999999999668e+01 2.523575148502679076e+05
7.209130000000000393e+01 2.359600942971907207e+05
7.011979999999999791e+01 2.064727857958910463e+05
6.814770000000000039e+01 1.687305959843296150e+05
6.617520000000000380e+01 1.279135183651089756e+05
6.420210000000000150e+01 8.884495959631107689e+04
6.222849999999999682e+01 5.685601646442297351e+04
6.025439999999999685e+01 3.468578904481513018e+04
5.827980000000000160e+01 2.018557741287715908e+04
