1.838160000000000082e+03 1.184960134460125118e+02
1.836589999999999918e+03 9.138592190294875763e+02
1.835029999999999973e+03 2.848422816486447118e+03
1.833460000000000036e+03 8.351555698869051412e+02
1.831890000000000100e+03 9.557209008373320103e+01
1.830329999999999927e+03 2.301950319973984733e+02
1.828759999999999991e+03 1.281981100011151284e+03
1.827190000000000055e+03 1.347450934821448755e+03
1.825619999999999891e+03 9.356045364281162620e+02
1.824049999999999955e+03 1.608441904831095599e+03
1.822490000000000009e+03 1.542495753242517821e+03
1.820920000000000073e+03 2.986702669462538324e+03
1.819349999999999909e+03 1.114593352479045279e+03
1.817779999999999973e+03 1.776167802291805856e+03
1.816210000000000036e+03 2.083426018900994677e+03
1.814640000000000100e+03 1.390368002306553535e+03
1.813069999999999936e+03 1.685993752508657053e+03
1.811490000000000009e+03 3.686756456725299358e+03
1.809920000000000073e+03 1.932747726295841858e+03
1.808349999999999909e+03 9.864227626628126018e+02
1.806779999999999973e+03 2.612781565826095175e+03
1.805210000000000036e+03 1.357824135785805993e+03
1.803630000000000109e+03 1.256993575809639879e+03
1.802059999999999945e+03 1.104016651379643008e+02
1.800490000000000009e+03 1.284493521262542345e+03
1.798910000000000082e+03 2.807061919491970912e+02
1.797339999999999918e+03 -5.478364325575530529e+02
1.795769999999999982e+03 -1.456695290267933160e+03
1.794190000000000055e+03 -1.643439388918515760e+03
1.792619999999999891e+03 1.730672727397177368e+02
1.791039999999999964e+03 -5.003153478201711550e+02
1.789470000000000027e+03 1.232556833206443116e+03
1.787890000000000100e+03 -1.190464309262810275e+03
1.786309999999999945e+03 -4.498057262134971097e+02
1.784740000000000009e+03 -1.350886273246025667e+03
1.783160000000000082e+03 -1.003866212106193416e+03
1.781579999999999927e+03 8.583357455220539123e+01
1.780009999999999991e+03 2.102800299460417591e+03
1.778430000000000064e+03 -4.051384357906645164e+02
1.776849999999999909e+03 8.556025544769363478e+02
1.775269999999999982e+03 1.258023270262929145e+03
1.773690000000000055e+03 1.540123711567372084e+03
1.772109999999999900e+03 1.947903878390439786e+03
1.770529999999999973e+03 2.786363770731841214e+03
1.768950000000000045e+03 1.846503388591750991e+03
1.767369999999999891e+03 2.376322731970227323e+03
1.765789999999999964e+03 1.661821800867095590e+03
1.764210000000000036e+03 3.030000595282413997e+03
1.762630000000000109e+03 1.965859115216298960e+03
1.761049999999999955e+03 3.138397360668692272e+03
1.759470000000000027e+03 2.373615331639477517e+03
1.757890000000000100e+03 2.289513028128771111e+03
1.756309999999999945e+03 1.756090450136631262e+03
1.754720000000000027e+03 2.537727952072746120e+03
1.753140000000000100e+03 5.216627980637713335e+02
1.751559999999999945e+03 1.378277369573421311e+03
1.749970000000000027e+03 8.989459270207444206e+02
1.748390000000000100e+03 8.829179225136176683e+02
1.746799999999999955e+03 6.199398370075505227e+02
1.745220000000000027e+03 -8.867307435163529590e+02
1.743630000000000109e+03 6.316445280239568092e+02
1.742049999999999955e+03 -1.541668628516548779e+03
1.740460000000000036e+03 -2.393939999929803889e+03
1.738880000000000109e+03 -8.698957324870862067e+02
1.737289999999999964e+03 -2.122813746853731573e+03
1.735710000000000036e+03 -1.481412055427790619e+03
1.734119999999999891e+03 -1.345976712748000864e+03
1.732529999999999973e+03 -2.171865711486549117e+03
1.730940000000000055e+03 -2.814079051643493585e+03
1.729359999999999900e+03 -1.337964539304608479e+03
1.727769999999999982e+03 -2.478245224150596187e+02
1.726180000000000064e+03 -1.477008846943848766e+03
1.724589999999999918e+03 -1.941517512890859507e+03
1.723000000000000000e+03 -1.186350520256324671e+03
1.721410000000000082e+03 -9.645078690401278436e+02
1.719819999999999936e+03 -1.542989559242152609e+03
1.718230000000000018e+03 -9.957955908626317978e+02
1.716640000000000100e+03 -1.175925963901448995e+03
1.715049999999999955e+03 -4.833806783584877849e+02
1.713460000000000036e+03 -1.632159734233864583e+03
1.711869999999999891e+03 -9.462631315275793895e+02
1.710279999999999973e+03 6.293091297602513805e+02
1.708680000000000064e+03 -3.721216627650428563e+02
1.707089999999999918e+03 -9.922001241968246177e+02
1.705500000000000000e+03 -1.641602927047119010e+03
1.703910000000000082e+03 5.286699286843650043e+02
1.702309999999999945e+03 8.889315582406707108e+02
1.700720000000000027e+03 1.024553691252251156e+03
1.699119999999999891e+03 2.132160505493055098e+03
1.697529999999999973e+03 2.329131915784906596e+03
1.695940000000000055e+03 3.307789846584200859e+02
1.694339999999999918e+03 -7.659539771778509021e+01
1.692740000000000009e+03 5.367017858918989077e+02
1.691150000000000091e+03 8.563717507441178896e+02
1.689549999999999955e+03 2.687014119038358331e+03
1.687960000000000036e+03 1.538033361170790158e+03
1.686359999999999900e+03 4.105020914149528835e+03
1.684759999999999991e+03 3.902680033114098478e+03
1.683170000000000073e+03 4.887221712252357975e+02
1.681569999999999936e+03 2.013726474874420092e+03
1.679970000000000027e+03 3.290402344509435352e+03
1.678369999999999891e+03 3.603749780130456202e+03
1.676769999999999982e+03 3.065768781737424433e+03
1.675170000000000073e+03 1.271459349330281839e+03
1.673569999999999936e+03 1.428214829091448337e+02
1.671970000000000027e+03 1.433855182473897003e+03
1.670369999999999891e+03 2.558560448024654761e+03
1.668769999999999982e+03 2.100937279561301693e+03
1.667170000000000073e+03 1.169985677083837800e+03
1.665569999999999936e+03 8.517056405924959108e+02
1.663970000000000027e+03 1.614097170086926781e+03
1.662369999999999891e+03 3.467160265567421447e+03
1.660769999999999982e+03 1.419894927033805288e+03
1.659160000000000082e+03 2.690558910636696965e+03
1.657559999999999945e+03 2.972634651362430304e+03
1.655960000000000036e+03 2.763819580740528181e+02
1.654349999999999909e+03 3.305241595499683172e+01
1.652750000000000000e+03 9.221408019259106368e+02
1.651150000000000091e+03 1.158900753882771824e+03
1.649539999999999964e+03 -2.212422313958173618e+03
1.647940000000000055e+03 -1.988321282742079347e+03
1.646329999999999927e+03 -9.253073895783745684e+02
1.644730000000000018e+03 -4.418652791029307991e+02
1.643119999999999891e+03 1.564855750654824078e+02
1.641509999999999991e+03 -2.804961230349726975e+02
1.639910000000000082e+03 8.956579973222687840e+00
1.638299999999999955e+03 1.243118428775342181e+02
1.636690000000000055e+03 -1.316665446486906148e+03
1.635089999999999918e+03 -2.337202150946017355e+03
1.633480000000000018e+03 -1.341842479305691086e+03
1.631869999999999891e+03 -1.613815359934116714e+03
1.630259999999999991e+03 -2.182120792831177823e+03
1.628650000000000091e+03 -3.021758777996990830e+03
1.627039999999999964e+03 -3.282729315431381110e+03
1.625430000000000064e+03 -3.810032405134523287e+03
1.623819999999999936e+03 -3.061668047106300946e+03
1.622210000000000036e+03 -3.836636241346830502e+03
1.620599999999999909e+03 -3.032936987855937332e+03
1.618990000000000009e+03 -5.407570286633854266e+03
1.617380000000000109e+03 -4.806536137680406682e+03
1.615769999999999982e+03 -4.299834540995594580e+03
1.614160000000000082e+03 -5.134465496579534374e+03
1.612549999999999955e+03 -4.920429004432109650e+03
1.610930000000000064e+03 -4.362529184857907239e+03
1.609319999999999936e+03 -4.612159862789907493e+03
1.607710000000000036e+03 -3.831123092990601435e+03
1.606089999999999918e+03 -5.087229205220006406e+03
1.604480000000000018e+03 -4.802859605500125326e+03
1.602859999999999900e+03 -4.704637031722464599e+03
1.601250000000000000e+03 -6.231934602082008496e+03
1.599630000000000109e+03 -6.223383342297398485e+03
1.598019999999999982e+03 -6.914348082736250944e+03
1.596400000000000091e+03 -5.007468136944633443e+03
1.594789999999999964e+03 -6.855100047462852672e+03
1.593170000000000073e+03 -6.676891415664169472e+03
1.591549999999999955e+03 -5.293019480047572870e+03
1.589940000000000055e+03 -6.118653178456006572e+03
1.588319999999999936e+03 -5.201452556832460687e+03
1.586700000000000045e+03 -6.319588631391059607e+03
1.585079999999999927e+03 -6.059061402131919749e+03
1.583470000000000027e+03 -5.951031506241241004e+03
1.581849999999999909e+03 -4.564175590974977240e+03
1.580230000000000018e+03 -4.712656371891032904e+03
1.578609999999999900e+03 -3.935473848989233375e+03
1.576990000000000009e+03 -3.777628022269695066e+03
1.575369999999999891e+03 -2.562118891732359771e+03
1.573750000000000000e+03 -3.705946457377285697e+03
1.572130000000000109e+03 -2.845110719204414636e+03
1.570500000000000000e+03 -2.756467666999436915e+03
1.568880000000000109e+03 -3.661307399562560022e+03
1.567259999999999991e+03 -2.978483828307769727e+03
1.565640000000000100e+03 -1.828996953235240653e+03
1.564019999999999982e+03 -2.266846774344914593e+03
1.562390000000000100e+03 -1.695899686109507456e+03
1.560769999999999982e+03 -1.026424977955175564e+03
1.559150000000000091e+03 -3.802869659831048921e+02
1.557519999999999982e+03 1.037641707390313968e+03
1.555900000000000091e+03 3.231104248626448680e+03
1.554269999999999982e+03 1.181353281691437587e+03
1.552650000000000091e+03 -1.076859647808363661e+03
1.551019999999999982e+03 -3.502902550516882911e+02
1.549400000000000091e+03 -4.001786552873672917e+02
1.547769999999999982e+03 1.425711097160819918e+03
1.546140000000000100e+03 9.312599838543101214e+02
1.544519999999999982e+03 3.373573383290204220e+02
1.542890000000000100e+03 4.252265847141388804e+02
1.541259999999999991e+03 7.817549653446767479e+02
1.539640000000000100e+03 -3.701619254703400657e+02
1.538009999999999991e+03 2.202686814851767849e+03
1.536380000000000109e+03 1.314194689419178758e+03
1.534750000000000000e+03 1.744361698232009076e+03
1.533119999999999891e+03 2.621187841290142387e+03
1.531490000000000009e+03 1.634673118593520485e+03
1.529859999999999900e+03 2.180817530142376199e+03
1.528230000000000018e+03 6.746210759364767000e+02
1.526599999999999909e+03 2.197083755975938402e+03
1.524970000000000027e+03 1.520205570260644890e+03
1.523339999999999918e+03 1.988986518790828995e+03
1.521710000000000036e+03 2.579426601566257887e+03
1.520069999999999936e+03 1.879605129866511561e+03
1.518440000000000055e+03 3.188361389931640588e+03
1.516809999999999945e+03 3.258776784242130816e+03
1.515180000000000064e+03 3.279851312797982246e+03
1.513539999999999964e+03 2.604655909245368093e+03
1.511910000000000082e+03 2.513046615090919659e+03
1.510269999999999982e+03 2.778163193596643396e+03
1.508640000000000100e+03 1.994870076731895097e+03
1.507000000000000000e+03 4.021298637296073139e+03
1.505369999999999891e+03 2.173321697721141391e+03
1.503730000000000018e+03 8.520622403435409069e+02
1.502099999999999909e+03 2.108401478058309294e+03
1.500460000000000036e+03 2.779454002739104908e+03
1.498819999999999936e+03 1.067161466433899477e+03
1.497190000000000055e+03 1.398473924482765142e+03
1.495549999999999955e+03 8.794933702360140160e+02
1.493910000000000082e+03 2.758167755003087223e+03
1.492269999999999982e+03 7.314970787842758000e+02
1.490640000000000100e+03 -1.265601997884223238e+02
1.489000000000000000e+03 -5.389188939488376491e+02
1.487359999999999900e+03 -2.016226490953122266e+02
1.485720000000000027e+03 5.823285347721539438e+02
1.484079999999999927e+03 3.789346576536772773e+02
1.482440000000000055e+03 -4.278042804509168491e+02
1.480799999999999955e+03 2.541117204585461877e+02
1.479160000000000082e+03 -9.203173396179918200e+02
1.477519999999999982e+03 -5.709146068058907986e+01
1.475869999999999891e+03 9.381196236499818042e+01
1.474230000000000018e+03 -4.596543847000575624e+02
1.472589999999999918e+03 -6.134657927510561422e+02
1.470950000000000045e+03 -1.583622261788172182e+03
1.469299999999999955e+03 -1.432109615668072365e+03
1.467660000000000082e+03 -9.009583107075886801e+02
1.466019999999999982e+03 -2.247152066733106039e+03
1.464369999999999891e+03 -2.560683032522094436e+03
1.462730000000000018e+03 -4.265569014550070278e+03
1.461079999999999927e+03 -1.910796427231805865e+03
1.459440000000000055e+03 -3.016374635262181982e+03
1.457789999999999964e+03 -2.138298494836664759e+03
1.456150000000000091e+03 -1.802568928869499359e+03
1.454500000000000000e+03 -8.811892353366129100e+02
1.452849999999999909e+03 -4.501588236800162122e+02
1.451210000000000036e+03 -1.798468648731708527e+03
1.449559999999999945e+03 -8.613468396780081093e+01
1.447910000000000082e+03 -5.041500010802410543e+02
1.446259999999999991e+03 -1.071514600068854634e+03
1.444609999999999900e+03 -1.013228480933757965e+03
1.442970000000000027e+03 1.505727972962777130e+03
1.441319999999999936e+03 3.833176452051848173e+02
1.439670000000000073e+03 3.295580355712445453e+02
1.438019999999999982e+03 1.776449144061130937e+03
1.436369999999999891e+03 4.569909706746693701e+02
1.434720000000000027e+03 -5.581648458808194846e+01
1.433059999999999945e+03 1.183994460475922097e+03
1.431410000000000082e+03 8.624863246007589623e+02
1.429759999999999991e+03 -2.037109315063571557e+01
1.428109999999999900e+03 2.014222072217380628e+02
1.426460000000000036e+03 -7.631337742822943255e+02
1.424799999999999955e+03 -3.110819525882834569e+02
1.423150000000000091e+03 2.666138529533054680e+01
1.421500000000000000e+03 6.110554413027130067e+02
1.419839999999999918e+03 1.109050937099091243e+03
1.418190000000000055e+03 6.027443124940036796e+02
1.416529999999999973e+03 2.610348811287549324e+02
1.414880000000000109e+03 6.540275759112555534e+02
1.413220000000000027e+03 1.078613217384438030e+03
1.411569999999999936e+03 2.564905231554643251e+03
1.409910000000000082e+03 1.207785945866198745e+03
1.408259999999999991e+03 5.173772794239921495e+02
1.406599999999999909e+03 1.421553066574037075e+03
1.404940000000000055e+03 1.463375325298577081e+03
1.403279999999999973e+03 1.820844055597728584e+03
1.401630000000000109e+03 2.032031911070807837e+03
1.399970000000000027e+03 1.371795714208390564e+03
1.398309999999999945e+03 2.122205988920526579e+03
1.396650000000000091e+03 1.309262735207215883e+03
1.394990000000000009e+03 1.684965953068458475e+03
1.393329999999999927e+03 1.644315642504312564e+03
1.391670000000000073e+03 9.723118035146617331e+02
1.390009999999999991e+03 2.513954436099622399e+03
1.388349999999999909e+03 3.007243540259136353e+03
1.386690000000000055e+03 2.653179115993203595e+03
1.385029999999999973e+03 1.981761163301824126e+03
1.383369999999999891e+03 1.929989682184997946e+03
1.381700000000000045e+03 2.497766462771571241e+03
1.380039999999999964e+03 1.636285795114643406e+03
1.378380000000000109e+03 3.043451599032094236e+03
1.376710000000000036e+03 2.132159262755769305e+03
1.375049999999999955e+03 1.778615880133176688e+03
1.373390000000000100e+03 1.980718969085020944e+03
1.371720000000000027e+03 1.891357515945681371e+03
1.370059999999999945e+03 1.788751418357423972e+03
1.368390000000000100e+03 1.772676506469724700e+03
1.366730000000000018e+03 1.384361222341307439e+03
1.365059999999999945e+03 1.346572851705423091e+03
1.363390000000000100e+03 8.364266804358921945e+02
1.361730000000000018e+03 1.108046551652543712e+03
1.360059999999999945e+03 -1.898130783651140518e+02
1.358390000000000100e+03 1.072969490983639844e+03
1.356730000000000018e+03 1.752524517545301933e+03
1.355059999999999945e+03 2.538593628145870753e+03
1.353390000000000100e+03 -2.046950618871487677e+02
1.351720000000000027e+03 1.676584474463597871e+02
1.350049999999999955e+03 1.846541561463964172e+02
1.348380000000000109e+03 8.602920642128447071e+02
1.346710000000000036e+03 1.448572171645821072e+03
1.345039999999999964e+03 1.189494478445267305e+03
1.343369999999999891e+03 5.560589846112416126e+02
1.341700000000000045e+03 1.170265690143627580e+03
1.340029999999999973e+03 1.353114595042541623e+03
1.338359999999999900e+03 5.936056993079837412e+02
1.336680000000000064e+03 1.247583034868293907e+03
1.335009999999999991e+03 5.093563953479169868e+02
1.333339999999999918e+03 6.977719551940681413e+02
1.331660000000000082e+03 -1.783326940506813116e+02
1.329990000000000009e+03 -5.126348779903491959e+02
1.328319999999999936e+03 -4.802948625635472126e+02
1.326640000000000100e+03 -1.301481496613356285e+03
1.324970000000000027e+03 -2.451859224972315133e+03
1.323289999999999964e+03 -1.471767900674807606e+03
1.321619999999999891e+03 -1.434863372819585493e+03
1.319940000000000055e+03 -1.340494090174906887e+03
1.318259999999999991e+03 -5.774869060306809843e+02
1.316589999999999918e+03 -1.009660065113508608e+03
1.314910000000000082e+03 -9.637492262211162597e+01
1.313230000000000018e+03 1.085481213688617572e+02
1.311559999999999945e+03 3.272972753479843959e+02
1.309880000000000109e+03 -3.085017223139002454e+02
1.308200000000000045e+03 5.633371815237915143e+02
1.306519999999999982e+03 1.181813986861030571e+03
1.304839999999999918e+03 8.892869369770050980e+01
1.303160000000000082e+03 8.416813020338886417e+02
1.301480000000000018e+03 3.840718118696240708e+02
1.299799999999999955e+03 1.801002232048776932e+02
1.298119999999999891e+03 6.697665360395913012e+02
1.296440000000000055e+03 4.607075037376489490e+01
1.294759999999999991e+03 3.620128662075148895e+02
1.293069999999999936e+03 6.073809662217681762e+02
1.291390000000000100e+03 1.134596729706274346e+03
1.289710000000000036e+03 2.791450394690327812e+03
1.288029999999999973e+03 1.904941961173841264e+03
1.286339999999999918e+03 1.437850877615564968e+03
1.284660000000000082e+03 2.170616091749863699e+03
1.282980000000000018e+03 8.690192073837388307e+02
1.281289999999999964e+03 1.747833194101665867e+03
1.279609999999999900e+03 2.154509957386297174e+03
1.277920000000000073e+03 2.036593268229102250e+03
1.276240000000000009e+03 1.545543679164547939e+03
1.274549999999999955e+03 1.836896314132260159e+03
1.272859999999999900e+03 2.279882527073612437e+03
1.271180000000000064e+03 4.650742331811081385e+03
1.269490000000000009e+03 3.547997868877340807e+03
1.267799999999999955e+03 3.190886983917211182e+03
1.266109999999999900e+03 3.395409676930750720e+03
1.264420000000000073e+03 2.893565947917784797e+03
1.262740000000000009e+03 3.193606638759956695e+03
1.261049999999999955e+03 3.315032233871985227e+03
1.259359999999999900e+03 4.678091406957595609e+03
1.257670000000000073e+03 3.406784158016787842e+03
1.255980000000000018e+03 4.246110487049678341e+03
1.254289999999999964e+03 2.482070394056179794e+03
1.252599999999999909e+03 2.294663879036263097e+03
1.250900000000000091e+03 2.475624922864808468e+03
1.249210000000000036e+03 3.156483395614486653e+03
1.247519999999999982e+03 3.151975446337775793e+03
1.245829999999999927e+03 3.108101075034675887e+03
1.244140000000000100e+03 3.047860281705128727e+03
1.242440000000000055e+03 3.431976193506328855e+03
1.240750000000000000e+03 3.400000387946376577e+03
1.239059999999999945e+03 4.205658160360064358e+03
1.237359999999999900e+03 5.238666120541980490e+03
1.235670000000000073e+03 3.951588880725204945e+03
1.233970000000000027e+03 5.030857479491853155e+03
1.232279999999999973e+03 3.704045227444701595e+03
1.230579999999999927e+03 4.767574464796140091e+03
1.228880000000000109e+03 3.937732930936355842e+03
1.227190000000000055e+03 4.716817076454666676e+03
1.225490000000000009e+03 3.527236181179701816e+03
1.223789999999999964e+03 4.159284514693572419e+03
1.222089999999999918e+03 4.079962076996249380e+03
1.220400000000000091e+03 3.843574029875977430e+03
1.218700000000000045e+03 4.278512230763415573e+03
1.217000000000000000e+03 4.560079660439689178e+03
1.215299999999999955e+03 5.106276318904769141e+03
1.213599999999999909e+03 5.352102206158655463e+03
1.211900000000000091e+03 5.019557322201319039e+03
1.210200000000000045e+03 5.191641667032847181e+03
1.208500000000000000e+03 5.704355240653239889e+03
1.206799999999999955e+03 5.343698043062409852e+03
1.205099999999999909e+03 6.650670074260444380e+03
1.203390000000000100e+03 5.383944362387701403e+03
1.201690000000000055e+03 7.086172670156229287e+03
1.199990000000000009e+03 6.659030206713592634e+03
1.198289999999999964e+03 7.284516972059733234e+03
1.196579999999999927e+03 6.739297257477242965e+03
1.194880000000000109e+03 8.567040299393876921e+03
1.193170000000000073e+03 8.909072486538207158e+03
1.191470000000000027e+03 9.898071805025392678e+03
1.189759999999999991e+03 9.916355893896543421e+03
1.188059999999999945e+03 1.088261148895428050e+04
1.186349999999999909e+03 1.127514747955222265e+04
1.184650000000000091e+03 1.173265935118042398e+04
1.182940000000000055e+03 1.322444724350515753e+04
1.181230000000000018e+03 1.313085998977505369e+04
1.179529999999999973e+03 1.459825518575549359e+04
1.177819999999999936e+03 1.635291983375221025e+04
1.176109999999999900e+03 1.789120933569403132e+04
1.174400000000000091e+03 1.699412369158089859e+04
1.172690000000000055e+03 1.584166290141298668e+04
1.170980000000000018e+03 1.911282696519012097e+04
1.169269999999999982e+03 1.850061588291241787e+04
1.167559999999999945e+03 1.954902965457987739e+04
1.165849999999999909e+03 2.045106828019238310e+04
1.164140000000000100e+03 2.196673175974993501e+04
1.162430000000000064e+03 2.261502009325273684e+04
1.160720000000000027e+03 2.233993328070061398e+04
1.159009999999999991e+03 2.429547132209362462e+04
1.157289999999999964e+03 2.569924810179075575e+04
1.155579999999999927e+03 2.675303365723742172e+04
1.153869999999999891e+03 2.605844406662919209e+04
1.152160000000000082e+03 2.850547932996603777e+04
1.150440000000000055e+03 2.933674454343132675e+04
1.148730000000000018e+03 3.060302732082188595e+04
1.147009999999999991e+03 3.070653564783820184e+04
1.145299999999999955e+03 3.223006593928241637e+04
1.143579999999999927e+03 3.334581737984978827e+04
1.141869999999999891e+03 3.435259518534765812e+04
1.140150000000000091e+03 3.492058973946602782e+04
1.138430000000000064e+03 3.698420474702696083e+04
1.136720000000000027e+03 3.679385272668703692e+04
1.135000000000000000e+03 3.918671084779902594e+04
1.133279999999999973e+03 3.859718942235352006e+04
1.131559999999999945e+03 4.080728845035051927e+04
1.129839999999999918e+03 4.129800793178999447e+04
1.128130000000000109e+03 4.273477140582929133e+04
1.126410000000000082e+03 4.454173400081985164e+04
1.124690000000000055e+03 4.637431704925291706e+04
1.122970000000000027e+03 4.737352055112848757e+04
1.121250000000000000e+03 4.752234450644656317e+04
1.119519999999999982e+03 4.890135434271965642e+04
1.117799999999999955e+03 5.089641699825669639e+04
1.116079999999999927e+03 5.098510010723627056e+04
1.114359999999999900e+03 5.349840366965834983e+04
1.112640000000000100e+03 5.441532768552290509e+04
1.110910000000000082e+03 5.597542653618287295e+04
1.109190000000000055e+03 5.677758925226645079e+04
1.107470000000000027e+03 5.797537242179253371e+04
1.105740000000000009e+03 5.931832379328645766e+04
1.104019999999999982e+03 6.041434566303150496e+04
1.102289999999999964e+03 6.253753130858289660e+04
1.100569999999999936e+03 6.311879187854693737e+04
1.098839999999999918e+03 6.387321179815582582e+04
1.097119999999999891e+03 6.519271106833886006e+04
1.095390000000000100e+03 6.737336526200512890e+04
1.093660000000000082e+03 6.792463548295243527e+04
1.091940000000000055e+03 6.921999170013092225e+04
1.090210000000000036e+03 6.787649619513569633e+04
1.088480000000000018e+03 7.285461671742150793e+04
1.086750000000000000e+03 7.403035326698824065e+04
1.085019999999999982e+03 7.445970584383601090e+04
1.083299999999999955e+03 7.787815550156292738e+04
1.081569999999999936e+03 7.882274235246813623e+04
1.079839999999999918e+03 7.975394523065438261e+04
1.078109999999999900e+03 8.331376413612157921e+04
1.076369999999999891e+03 8.284070913728966843e+04
1.074640000000000100e+03 8.641675787782331463e+04
1.072910000000000082e+03 8.745542264563799836e+04
1.071180000000000064e+03 8.849370344073366141e+04
1.069450000000000045e+03 9.090260026311036199e+04
1.067720000000000027e+03 9.240111311276801280e+04
1.065980000000000018e+03 9.463873872832418419e+04
1.064250000000000000e+03 9.618648141304837191e+04
1.062509999999999991e+03 9.733033241185062798e+04
1.060779999999999973e+03 1.002743049316412653e+05
1.059049999999999955e+03 1.026928934787129110e+05
1.057309999999999945e+03 1.024735836685467511e+05
1.055579999999999927e+03 1.049074020506849047e+05
1.053839999999999918e+03 1.073253176237648004e+05
1.052099999999999909e+03 1.103888447723052814e+05
1.050369999999999891e+03 1.112585067972954130e+05
1.048630000000000109e+03 1.136102593290818913e+05
1.046890000000000100e+03 1.156596234363290132e+05
1.045150000000000091e+03 1.175625991190366913e+05
1.043420000000000073e+03 1.200467185946643294e+05
1.041680000000000064e+03 1.219829196606180631e+05
1.039940000000000055e+03 1.246217323020323529e+05
1.038200000000000045e+03 1.255221565189072280e+05
1.036460000000000036e+03 1.289861923112426884e+05
1.034720000000000027e+03 1.297338396790387051e+05
1.032980000000000018e+03 1.310130986222952779e+05
1.031240000000000009e+03 1.324469691410124069e+05
1.029500000000000000e+03 1.358674512351901212e+05
1.027750000000000000e+03 1.360909925964444992e+05
1.026009999999999991e+03 1.399926956092184118e+05
1.024269999999999982e+03 1.407800101974528807e+05
1.022529999999999973e+03 1.423749363611479057e+05
1.020779999999999973e+03 1.438379128497904167e+05
1.019039999999999964e+03 1.465080599320816400e+05
1.017299999999999955e+03 1.479108185898334195e+05
1.015549999999999955e+03 1.486766208627284504e+05
1.013809999999999945e+03 1.517006004390764283e+05
1.012059999999999945e+03 1.528116191530882497e+05
1.010320000000000050e+03 1.546698196480324259e+05
1.008570000000000050e+03 1.568280548031611252e+05
1.006820000000000050e+03 1.576268970562710892e+05
1.005080000000000041e+03 1.605599278129471058e+05
1.003330000000000041e+03 1.602689865071739187e+05
1.001580000000000041e+03 1.623846522993819672e+05
9.998319999999999936e+02 1.639514428162413242e+05
9.980839999999999463e+02 1.640508413286304858e+05
9.963350000000000364e+02 1.645010885747608554e+05
9.945850000000000364e+02 1.657771838814710500e+05
9.928350000000000364e+02 1.666718862861624511e+05
9.910850000000000364e+02 1.670631957888351171e+05
9.893350000000000364e+02 1.666651123894889897e+05
9.875839999999999463e+02 1.692968757036300376e+05
9.858319999999999936e+02 1.696404850573270523e+05
9.840810000000000173e+02 1.701124614444684703e+05
9.823279999999999745e+02 1.715135223629399552e+05
9.805760000000000218e+02 1.712009503148558433e+05
9.788229999999999791e+02 1.702522229576955433e+05
9.770689999999999600e+02 1.714743396167580504e+05
9.753160000000000309e+02 1.702468235341652762e+05
9.735620000000000118e+02 1.690451510178664175e+05
9.718070000000000164e+02 1.711003213927755714e+05
9.700520000000000209e+02 1.709070966173041961e+05
9.682970000000000255e+02 1.701134766914523207e+05
9.665410000000000537e+02 1.669796985310238961e+05
9.647849999999999682e+02 1.671925247697728337e+05
9.630280000000000200e+02 1.671611918728044257e+05
9.612709999999999582e+02 1.675094629243146628e+05
9.595140000000000100e+02 1.651443379243035160e+05
9.577559999999999718e+02 1.649420526615075651e+05
9.559980000000000473e+02 1.648403708962349046e+05
9.542390000000000327e+02 1.625375279660102096e+05
9.524800000000000182e+02 1.625402880820970167e+05
9.507210000000000036e+02 1.608636512444952969e+05
9.489610000000000127e+02 1.590308521135910414e+05
9.472000000000000455e+02 1.576878900119891623e+05
9.454400000000000546e+02 1.555552958449725120e+05
9.436789999999999736e+02 1.544935382555332035e+05
9.419170000000000300e+02 1.525666165658910759e+05
9.401549999999999727e+02 1.501872965673852596e+05
9.383930000000000291e+02 1.483165782600156963e+05
9.366309999999999718e+02 1.468414616437824443e+05
9.348680000000000518e+02 1.439041795710165752e+05
9.331040000000000418e+02 1.418067313631682773e+05
9.313400000000000318e+02 1.395318839417232084e+05
9.295760000000000218e+02 1.365146373066813685e+05
9.278110000000000355e+02 1.343562234049992985e+05
9.260460000000000491e+02 1.331864098369689891e+05
9.242809999999999491e+02 1.304211966025904985e+05
9.225149999999999864e+02 1.268248149693724990e+05
9.207480000000000473e+02 1.244452642576105136e+05
9.189819999999999709e+02 1.210240821591119166e+05
9.172150000000000318e+02 1.182627305288047355e+05
9.154470000000000027e+02 1.168142086865996826e+05
9.136789999999999736e+02 1.125342858182526252e+05
9.119109999999999445e+02 1.102609619237635634e+05
9.101420000000000528e+02 1.082174666832528310e+05
9.083730000000000473e+02 1.050435699628223665e+05
9.066029999999999518e+02 1.022565009885581676e+05
9.048329999999999700e+02 9.905103008033981314e+04
9.030629999999999882e+02 9.683515723816730315e+04
9.012920000000000300e+02 9.451411100675436319e+04
8.995209999999999582e+02 9.164966238709638128e+04
8.977490000000000236e+02 8.831903946935944259e+04
8.959769999999999754e+02 8.660201370882990886e+04
8.942050000000000409e+02 8.295158510550769279e+04
8.924320000000000164e+02 8.048198106741698575e+04
8.906589999999999918e+02 7.774197373172952211e+04
8.888849999999999909e+02 7.619079005140869413e+04
8.871109999999999900e+02 7.403720261843036860e+04
8.853360000000000127e+02 7.012443793044067570e+04
8.835620000000000118e+02 6.845004276455283980e+04
8.817859999999999445e+02 6.658069593053683639e+04
8.800109999999999673e+02 6.388471861862268997e+04
8.782340000000000373e+02 6.268278827185867704e+04
8.764579999999999700e+02 6.101522744719655020e+04
8.746810000000000400e+02 5.800148708965352853e+04
8.729039999999999964e+02 5.700034161273128120e+04
8.711259999999999764e+02 5.566001569101063069e+04
8.693479999999999563e+02 5.340728419382369611e+04
8.675689999999999600e+02 5.181637133940757485e+04
8.657899999999999636e+02 5.198205245318147354e+04
8.640109999999999673e+02 5.001932753514542128e+04
8.622309999999999945e+02 4.909942011870030547e+04
8.604510000000000218e+02 4.834410621384496335e+04
8.586699999999999591e+02 4.641960889712345670e+04
8.568890000000000100e+02 4.553870463513486902e+04
8.551069999999999709e+02 4.480261604730982799e+04
8.533250000000000455e+02 4.414012005710427184e+04
8.515430000000000064e+02 4.352121666451825877e+04
8.497599999999999909e+02 4.283612780299145379e+04
8.479769999999999754e+02 4.239263108171412023e+04
8.461939999999999600e+02 4.251372650068631629e+04
8.444099999999999682e+02 4.261363530697187525e+04
8.426259999999999764e+02 4.105713579588034190e+04
8.408410000000000082e+02 4.146244875659237732e+04
8.390560000000000400e+02 4.114035294204409001e+04
8.372699999999999818e+02 4.137206868327644770e+04
8.354840000000000373e+02 4.155637519110864378e+04
8.336970000000000027e+02 4.166049233818531502e+04
8.319109999999999445e+02 4.075698015008325456e+04
8.301230000000000473e+02 4.172649755694912164e+04
8.283360000000000127e+02 4.257738562863628613e+04
8.265480000000000018e+02 4.178808296399388928e+04
8.247590000000000146e+02 4.317058887484995648e+04
8.229700000000000273e+02 4.353368417634704383e+04
8.211810000000000400e+02 4.492436886848509312e+04
8.193909999999999627e+02 4.510786098852707073e+04
8.176009999999999991e+02 4.541394204004382482e+04
8.158099999999999454e+02 4.665482960087561514e+04
8.140190000000000055e+02 4.709630563375944621e+04
8.122279999999999518e+02 4.819637013869543443e+04
8.104360000000000355e+02 4.960724000406879350e+04
8.086440000000000055e+02 5.138869788181496551e+04
8.068509999999999991e+02 5.363096020038332790e+04
8.050579999999999927e+02 5.454381007138852146e+04
8.032649999999999864e+02 5.660424749483057531e+04
8.014710000000000036e+02 5.707148820893431548e+04
7.996760000000000446e+02 5.982953152321849484e+04
7.978819999999999482e+02 6.059194619165055337e+04
7.960860000000000127e+02 6.135937804717267863e+04
7.942910000000000537e+02 6.408018125684262486e+04
7.924950000000000045e+02 6.522578568496092339e+04
7.906979999999999791e+02 6.736619064027654531e+04
7.889020000000000437e+02 6.796496718015699298e+04
7.871040000000000418e+02 6.934775768128971686e+04
7.853070000000000164e+02 7.041591976698726648e+04
7.835090000000000146e+02 7.216988099661045999e+04
7.817100000000000364e+02 7.444464067813857400e+04
7.799109999999999445e+02 7.479698514709970914e+04
7.781119999999999663e+02 7.535791440349380719e+04
7.763120000000000118e+02 7.782164095778348565e+04
7.745119999999999436e+02 7.885295183777413331e+04
7.727110000000000127e+02 7.976905909193964908e+04
7.709099999999999682e+02 7.960775020981751732e+04
7.691090000000000373e+02 8.050702519140772347e+04
7.673070000000000164e+02 8.215109539188051713e+04
7.655040000000000191e+02 8.316496011767564050e+04
7.637019999999999982e+02 8.291019688989591668e+04
7.618990000000000009e+02 8.457022772493673256e+04
7.600950000000000273e+02 8.549105192885288852e+04
7.582910000000000537e+02 8.579145860897598322e+04
7.564869999999999663e+02 8.745644776530601666e+04
7.546820000000000164e+02 8.827022913329464791e+04
7.528769999999999527e+02 8.982459251447526913e+04
7.510710000000000264e+02 8.954274718102795305e+04
7.492649999999999864e+02 9.081348339750102605e+04
7.474579999999999700e+02 9.237900997254645335e+04
7.456509999999999536e+02 9.216111763398407493e+04
7.438440000000000509e+02 9.444580638181389077e+04
7.420359999999999445e+02 9.485628432907495880e+04
7.402279999999999518e+02 9.475534289894346148e+04
7.384189999999999827e+02 9.621718974041710317e+04
7.366100000000000136e+02 9.640161674045684049e+04
7.348010000000000446e+02 9.711162389906270255e+04
7.329909999999999854e+02 9.752741816884963191e+04
7.311810000000000400e+02 9.886379213290472399e+04
7.293700000000000045e+02 9.927195227928843815e+04
7.275589999999999691e+02 1.005396916553858173e+05
7.257469999999999573e+02 1.013602162844461709e+05
7.239349999999999454e+02 1.026803196784090833e+05
7.221230000000000473e+02 1.026210018372745544e+05
7.203099999999999454e+02 1.045294680867544957e+05
7.184969999999999573e+02 1.048505126360693248e+05
7.166829999999999927e+02 1.065923403456066299e+05
7.148690000000000282e+02 1.066147458896544995e+05
7.130539999999999736e+02 1.073669336630197358e+05
7.112390000000000327e+02 1.078246988053146633e+05
7.094239999999999782e+02 1.089930413165393111e+05
7.076079999999999472e+02 1.108501648928083887e+05
7.057920000000000300e+02 1.118438653721696755e+05
7.039750000000000227e+02 1.113133459846438636e+05
7.021580000000000155e+02 1.122094030341162579e+05
7.003400000000000318e+02 1.118132392842568515e+05
6.985220000000000482e+02 1.151736515050449962e+05
6.967039999999999509e+02 1.153146396964807209e+05
6.948849999999999909e+02 1.160494059223872900e+05
6.930660000000000309e+02 1.166457476523341757e+05
6.912459999999999809e+02 1.175148664832809009e+05
6.894260000000000446e+02 1.178905603514040995e+05
6.876059999999999945e+02 1.189218292567038297e+05
6.857849999999999682e+02 1.210628740955230896e+05
6.839629999999999654e+02 1.198766941669888038e+05
6.821420000000000528e+02 1.215908879122958751e+05
6.803189999999999600e+02 1.232190566179575690e+05
6.784969999999999573e+02 1.243105989974605909e+05
6.766730000000000018e+02 1.242161149344174191e+05
6.748500000000000227e+02 1.265080045452156046e+05
6.730259999999999536e+02 1.261706670504923677e+05
6.712019999999999982e+02 1.277959027229244239e+05
6.693769999999999527e+02 1.299979103537981136e+05
6.675520000000000209e+02 1.302284906836803711e+05
6.657259999999999991e+02 1.319748420354541158e+05
6.638999999999999773e+02 1.334097656178330653e+05
6.620729999999999791e+02 1.350364592850402405e+05
6.602459999999999809e+02 1.369897247141926782e+05
6.584189999999999827e+02 1.381055619052903494e+05
6.565910000000000082e+02 1.392171680092456518e+05
6.547630000000000337e+02 1.417563454062296951e+05
6.529339999999999691e+02 1.433642907779816887e+05
6.511050000000000182e+02 1.449748069735892932e+05
6.492749999999999773e+02 1.468470902053620666e+05
6.474450000000000500e+02 1.495789437915606832e+05
6.456150000000000091e+02 1.516963677321852592e+05
6.437839999999999918e+02 1.536545575350798899e+05
6.419529999999999745e+02 1.546933172227141913e+05
6.401209999999999809e+02 1.586248418329893611e+05
6.382889999999999873e+02 1.622349358580612752e+05
6.364560000000000173e+02 1.646257938656317419e+05
6.346230000000000473e+02 1.679262208177994471e+05
6.327899999999999636e+02 1.684692167145644198e+05
6.309560000000000173e+02 1.717399754180085147e+05
6.291219999999999573e+02 1.743663025955937919e+05
6.272870000000000346e+02 1.781913916386894416e+05
6.254519999999999982e+02 1.809250486852136673e+05
6.236159999999999854e+02 1.844774666555663571e+05
6.217799999999999727e+02 1.875754521583783207e+05
6.199439999999999600e+02 1.898130051936495875e+05
6.181069999999999709e+02 1.942583179750055133e+05
6.162690000000000055e+02 1.981353897954148706e+05
6.144320000000000164e+02 2.022928364635606413e+05
6.125929999999999609e+02 2.040412332054867293e+05
6.107549999999999955e+02 2.102790047951491724e+05
6.089160000000000537e+02 2.131945340090329410e+05
6.070760000000000218e+02 2.176118201393370400e+05
6.052359999999999900e+02 2.200486719156575855e+05
6.033959999999999582e+02 2.245460893379945483e+05
6.015549999999999500e+02 2.291792624964421266e+05
5.997140000000000555e+02 2.325780008286538650e+05
5.978719999999999573e+02 2.376064939522153290e+05
5.960299999999999727e+02 2.402875517770322040e+05
5.941870000000000118e+02 2.467463634479245520e+05
5.923440000000000509e+02 2.507897393473070115e+05
5.905009999999999764e+02 2.539176794751795533e+05
5.886570000000000391e+02 2.574143722668933915e+05
5.868120000000000118e+02 2.587198170127232734e+05
5.849679999999999609e+02 2.647566370787982596e+05
5.831219999999999573e+02 2.664043963509516325e+05
5.812770000000000437e+02 2.693855309433502262e+05
5.794310000000000400e+02 2.736104160696442123e+05
5.775839999999999463e+02 2.715180510193385417e+05
5.757369999999999663e+02 2.773592483038955834e+05
5.738899999999999864e+02 2.794930079233152792e+05
5.720420000000000300e+02 2.818775161813352606e+05
5.701939999999999600e+02 2.824545863001696998e+05
5.683450000000000273e+02 2.839474041092511034e+05
5.664959999999999809e+02 2.860957833048420143e+05
5.646459999999999582e+02 2.863249092418135842e+05
5.627960000000000491e+02 2.860375960907331901e+05
5.609460000000000264e+02 2.880898438516007736e+05
5.590950000000000273e+02 2.898508371671244968e+05
5.572430000000000518e+02 2.894765753248849069e+05
5.553909999999999627e+02 2.931318734447005554e+05
5.535389999999999873e+02 2.933897315265714424e+05
5.516870000000000118e+02 2.935221495704975678e+05
5.498329999999999700e+02 2.943914944854956702e+05
5.479800000000000182e+02 2.963042151950437110e+05
5.461259999999999764e+02 2.982226783701721579e+05
5.442709999999999582e+02 2.992158832973067183e+05
5.424160000000000537e+02 3.011546467597329756e+05
5.405610000000000355e+02 3.023689687574509298e+05
5.387050000000000409e+02 3.044540313172431779e+05
5.368490000000000464e+02 3.066446519362260588e+05
5.349919999999999618e+02 3.079140121648247004e+05
5.331349999999999909e+02 3.105919299762563314e+05
5.312780000000000200e+02 3.112584053705210099e+05
5.294199999999999591e+02 3.138256191831866745e+05
5.275610000000000355e+02 3.157635706991393236e+05
5.257019999999999982e+02 3.181450788444401696e+05
5.238429999999999609e+02 3.195711436190890381e+05
5.219829999999999472e+02 3.200039449045272777e+05
5.201230000000000473e+02 3.209833023421862163e+05
5.182619999999999436e+02 3.196923953361232416e+05
5.164009999999999536e+02 3.201140440048969467e+05
5.145399999999999636e+02 3.219942483485074481e+05
5.126779999999999973e+02 3.211911870546152350e+05
5.108149999999999977e+02 3.208158594065671787e+05
5.089519999999999982e+02 3.186790864778181422e+05
5.070889999999999986e+02 3.180188682683680672e+05
5.052250000000000227e+02 3.192893825096985092e+05
5.033609999999999900e+02 3.151754509921742720e+05
5.014959999999999809e+02 3.168002509688664577e+05
4.996309999999999718e+02 3.151556047082935693e+05
4.977649999999999864e+02 3.136426889848598512e+05
4.958990000000000009e+02 3.125503265454941429e+05
4.940330000000000155e+02 3.123905173901965027e+05
4.921659999999999968e+02 3.098934375750499894e+05
4.902989999999999782e+02 3.103179105650479905e+05
4.884309999999999832e+02 3.076511119370936067e+05
4.865629999999999882e+02 3.070608656351036043e+05
4.846940000000000168e+02 3.066563467565443716e+05
4.828249999999999886e+02 3.057823797245129244e+05
4.809549999999999841e+02 3.047311391567823011e+05
4.790849999999999795e+02 3.034374499558861135e+05
4.772139999999999986e+02 3.018854862596475868e+05
4.753430000000000177e+02 2.980560734502937412e+05
4.734719999999999800e+02 2.963862115278244601e+05
4.716000000000000227e+02 2.943560739098174963e+05
4.697280000000000086e+02 2.940834866984886467e+05
4.678550000000000182e+02 2.914406228309526341e+05
4.659820000000000277e+02 2.908633088896317640e+05
4.641080000000000041e+02 2.880917173309209757e+05
4.622339999999999804e+02 2.868696752177057206e+05
4.603589999999999804e+02 2.841703545254046912e+05
4.584839999999999804e+02 2.816695827976230066e+05
4.566089999999999804e+02 2.818923600343605503e+05
4.547330000000000041e+02 2.807728574892511242e+05
4.528570000000000277e+02 2.800479034274281585e+05
4.509800000000000182e+02 2.779116686210359912e+05
4.491019999999999754e+02 2.755741523476480506e+05
4.472250000000000227e+02 2.732970133040411747e+05
4.453460000000000036e+02 2.724017623610254959e+05
4.434680000000000177e+02 2.714058886477908236e+05
4.415889999999999986e+02 2.692007320219376124e+05
4.397090000000000032e+02 2.663492917602694361e+05
4.378290000000000077e+02 2.660903980543906800e+05
4.359490000000000123e+02 2.652160509043012862e+05
4.340679999999999836e+02 2.623204189124283148e+05
4.321859999999999786e+02 2.607575013548057759e+05
4.303050000000000068e+02 2.586789612681579893e+05
4.284220000000000255e+02 2.575273030110644177e+05
4.265389999999999873e+02 2.557161898614431848e+05
4.246560000000000059e+02 2.549416218192942906e+05
4.227730000000000246e+02 2.530905988846176770e+05
4.208890000000000100e+02 2.518872879690468544e+05
4.190040000000000191e+02 2.519446883474610222e+05
4.171190000000000282e+02 2.500686328665198816e+05
4.152330000000000041e+02 2.494742877122229838e+05
4.133469999999999800e+02 2.443044862147720996e+05
4.114610000000000127e+02 2.465202283741671708e+05
4.095740000000000123e+02 2.468936796503889782e+05
4.076870000000000118e+02 2.466586740994015126e+05
4.057989999999999782e+02 2.453363766968736309e+05
4.039110000000000014e+02 2.446766219828245521e+05
4.020219999999999914e+02 2.429235744483547169e+05
4.001329999999999814e+02 2.416610691177952394e+05
3.982429999999999950e+02 2.415112699974214775e+05
3.963530000000000086e+02 2.413490125961330486e+05
3.944630000000000223e+02 2.413032969139298948e+05
3.925720000000000027e+02 2.409522862295291270e+05
3.906800000000000068e+02 2.399889798151157447e+05
3.887880000000000109e+02 2.389032141493678209e+05
3.868960000000000150e+02 2.382929892322853557e+05
3.850029999999999859e+02 2.376744673715239624e+05
3.831100000000000136e+02 2.392344857738332357e+05
3.812160000000000082e+02 2.381452062610173598e+05
3.793220000000000027e+02 2.388074665254206921e+05
3.774270000000000209e+02 2.378314279027394950e+05
3.755319999999999823e+02 2.381879285711694974e+05
3.736370000000000005e+02 2.373669685307107284e+05
3.717400000000000091e+02 2.369168689936618903e+05
3.698439999999999941e+02 2.385231474120280473e+05
3.679470000000000027e+02 2.355211247546048253e+05
3.660489999999999782e+02 2.358688002912680968e+05
3.641519999999999868e+02 2.356878540267210337e+05
3.622529999999999859e+02 2.380347648583376722e+05
3.603539999999999850e+02 2.372162130340675940e+05
3.584549999999999841e+02 2.370481985539108282e+05
3.565550000000000068e+02 2.363238800758000871e+05
3.546549999999999727e+02 2.372130984544117237e+05
3.527540000000000191e+02 2.370570118600308779e+05
3.508530000000000086e+02 2.372644616347248666e+05
3.489510000000000218e+02 2.384176054608747363e+05
3.470489999999999782e+02 2.378432851681953180e+05
3.451469999999999914e+02 2.370935007566866116e+05
3.432440000000000282e+02 2.367334091765527264e+05
3.413399999999999750e+02 2.368500096953602042e+05
3.394359999999999786e+02 2.372611451187603525e+05
3.375319999999999823e+02 2.371938154467531713e+05
3.356270000000000095e+02 2.377071766523233382e+05
3.337219999999999800e+02 2.367590722738123441e+05
3.318159999999999741e+02 2.360676577952742809e+05
3.299089999999999918e+02 2.357039324831210542e+05
3.280029999999999859e+02 2.367445856140302785e+05
3.260950000000000273e+02 2.377720821722183027e+05
3.241879999999999882e+02 2.379419571734688652e+05
3.222799999999999727e+02 2.379675198731581040e+05
3.203709999999999809e+02 2.387367695369281282e+05
3.184619999999999891e+02 2.368355516593555221e+05
3.165520000000000209e+02 2.391410197662065912e+05
3.146419999999999959e+02 2.389640198417581851e+05
3.127320000000000277e+02 2.404285518860103039e+05
3.108210000000000264e+02 2.388037686894733051e+05
3.089089999999999918e+02 2.400126695166346035e+05
3.069970000000000141e+02 2.412901013318129699e+05
3.050849999999999795e+02 2.406060641350084334e+05
3.031720000000000255e+02 2.407817097354064172e+05
3.012590000000000146e+02 2.400848858330948860e+05
2.993450000000000273e+02 2.403657437462760718e+05
2.974300000000000068e+02 2.418792827382827527e+05
2.955160000000000196e+02 2.401692004185227561e+05
2.936000000000000227e+02 2.407939492674986250e+05
2.916850000000000023e+02 2.412490768047078454e+05
2.897690000000000055e+02 2.401868839466383215e+05
2.878519999999999754e+02 2.382733699558530934e+05
2.859350000000000023e+02 2.400673844968859921e+05
2.840169999999999959e+02 2.395140769214406901e+05
2.820989999999999895e+02 2.395092973858040059e+05
2.801800000000000068e+02 2.389441947494134074e+05
2.782610000000000241e+02 2.398846196605653095e+05
2.763419999999999845e+02 2.397065721192596829e+05
2.744220000000000255e+02 2.400412002462140517e+05
2.725009999999999764e+02 2.403095033024519216e+05
2.705799999999999841e+02 2.409223329209302319e+05
2.686589999999999918e+02 2.402156891016489826e+05
2.667370000000000232e+02 2.409407189793821599e+05
2.648149999999999977e+02 2.402862749263198930e+05
2.628919999999999959e+02 2.405185035839436750e+05
2.609689999999999941e+02 2.418182578174794908e+05
2.590450000000000159e+02 2.408206837748597900e+05
2.571209999999999809e+02 2.401616348146030796e+05
2.551959999999999980e+02 2.411352565908360411e+05
2.532709999999999866e+02 2.427174029556263122e+05
2.513449999999999989e+02 2.428092190690383723e+05
2.494190000000000111e+02 2.442205592769454524e+05
2.474919999999999902e+02 2.436365682450932218e+05
2.455649999999999977e+02 2.450851008134171716e+05
2.436370000000000005e+02 2.447633011530874937e+05
2.417090000000000032e+02 2.453130245983585482e+05
2.397800000000000011e+02 2.464154148255685286e+05
2.378509999999999991e+02 2.475583276635472430e+05
2.359219999999999970e+02 2.477977631122946623e+05
2.339919999999999902e+02 2.486788641055801709e+05
2.320610000000000070e+02 2.492956299005784385e+05
2.301299999999999955e+02 2.496249173159115890e+05
2.281990000000000123e+02 2.494337263515796221e+05
2.262669999999999959e+02 2.505791989502766519e+05
2.243340000000000032e+02 2.524903343684075517e+05
2.224010000000000105e+02 2.520209904154131364e+05
2.204679999999999893e+02 2.520401670912934642e+05
2.185339999999999918e+02 2.537470053466409154e+05
2.165999999999999943e+02 2.518363637347481272e+05
2.146649999999999920e+02 2.533973827098359470e+05
2.127299999999999898e+02 2.532119213213119365e+05
2.107940000000000111e+02 2.550671195267688308e+05
2.088569999999999993e+02 2.541869765810719691e+05
2.069209999999999923e+02 2.547922128176707192e+05
2.049830000000000041e+02 2.547172466183041106e+05
2.030449999999999875e+02 2.550827985646714515e+05
2.011069999999999993e+02 2.557688686567727709e+05
1.991680000000000064e+02 2.545395953606484691e+05
1.972290000000000134e+02 2.561738397128601791e+05
1.952899999999999920e+02 2.548206017134079593e+05
1.933489999999999895e+02 2.557411568014091463e+05
1.914089999999999918e+02 2.571780910717058869e+05
1.894670000000000130e+02 2.570958169357227744e+05
1.875260000000000105e+02 2.580059219820352155e+05
1.855840000000000032e+02 2.589836804044055752e+05
1.836409999999999911e+02 2.591570914553898328e+05
1.816980000000000075e+02 2.590860181625525584e+05
1.797539999999999907e+02 2.598175965012240631e+05
1.778100000000000023e+02 2.615956899973931722e+05
1.758650000000000091e+02 2.632894341274527251e+05
1.739199999999999875e+02 2.639606929160724394e+05
1.719749999999999943e+02 2.636424663632523152e+05
1.700289999999999964e+02 2.644228891966582742e+05
1.680819999999999936e+02 2.659919606673068483e+05
1.661349999999999909e+02 2.660565457978708437e+05
1.641870000000000118e+02 2.688147785665196134e+05
1.622390000000000043e+02 2.680285244953766232e+05
1.602909999999999968e+02 2.710827835844418732e+05
1.583420000000000130e+02 2.724926890620030463e+05
1.563919999999999959e+02 2.742852401779220672e+05
1.544420000000000073e+02 2.751223034538651118e+05
1.524919999999999902e+02 2.759728788898321800e+05
1.505409999999999968e+02 2.759340987132852897e+05
1.485889999999999986e+02 2.778029621733165695e+05
1.466370000000000005e+02 2.773833367921613390e+05
1.446850000000000023e+02 2.779312225698195398e+05
1.427319999999999993e+02 2.790857507319012657e+05
1.407779999999999916e+02 2.828029205267287325e+05
1.388240000000000123e+02 2.834736004781327210e+05
1.368700000000000045e+02 2.819167905861132895e+05
1.349149999999999920e+02 2.816876210734019987e+05
1.329590000000000032e+02 2.821830911875513848e+05
1.310029999999999859e+02 2.843250704550140654e+05
1.290469999999999970e+02 2.859065588757899823e+05
1.270900000000000034e+02 2.855396856687060790e+05
1.251320000000000050e+02 2.868484500805450371e+05
1.231740000000000066e+02 2.872767226414076285e+05
1.212159999999999940e+02 2.868955033512938535e+05
1.192570000000000050e+02 2.852809204240994877e+05
1.172980000000000018e+02 2.851408451433990849e+05
1.153379999999999939e+02 2.823574052203019965e+05
1.133769999999999953e+02 2.795065999004364712e+05
1.114159999999999968e+02 2.780763012212357135e+05
1.094549999999999983e+02 2.811465091826997232e+05
1.074929999999999950e+02 2.807693504894673242e+05
1.055300000000000011e+02 2.744818243863968528e+05
1.035669999999999931e+02 2.636498039171355776e+05
1.016039999999999992e+02 2.550832890816836443e+05
9.963989999999999725e+01 2.482394181468898314e+05
9.767539999999999623e+01 2.458061024697196262e+05
9.571040000000000703e+01 2.445703542670252209e+05
9.374490000000000123e+01 2.464561731606585090e+05
9.177899999999999636e+01 2.471515463035203284e+05
8.981250000000000000e+01 2.467624982802087325e+05
8.784550000000000125e+01 2.468190162182094937e+05
8.587800000000000011e+01 2.466220997389895201e+05
8.390999999999999659e+01 2.434167484639196191e+05
8.194150000000000489e+01 2.368859620142742642e+05
7.997239999999999327e+01 2.284857523286156356e+05
7.800289999999999679e+01 2.253450943679905031e+05
7.603289999999999793e+01 2.195450000960297766e+05
7.406239999999999668e+01 2.123054691336231190e+05
7.209130000000000393e+01 1.975725133178375836e+05
7.011979999999999791e+01 1.714521078115298296e+05
6.814770000000000039e+01 1.385142766425407026e+05
6.617520000000000380e+01 1.025349950747100811e+05
6.420210000000000150e+01 6.866188703448511660e+04
6.222849999999999682e+01 4.177803997647945653e+04
6.025439999999999685e+01 2.347125352088996442e+04
5.827980000000000160e+01 1.150272728781726801e+04
