1.838160000000000082e+03 1.384773014012534986e+02
1.836589999999999918e+03 1.424080638910985726e+03
1.835029999999999973e+03 1.456278150258622190e+03
1.833460000000000036e+03 1.553796726615291846e+03
1.831890000000000100e+03 1.300473106483012089e+03
1.830329999999999927e+03 1.193942558008006017e+03
1.828759999999999991e+03 1.231134176722654956e+03
1.827190000000000055e+03 1.008383598948348663e+03
1.825619999999999891e+03 1.040790824685136613e+03
1.824049999999999955e+03 1.157755853932969330e+03
1.822490000000000009e+03 1.274812116307010001e+03
1.820920000000000073e+03 1.074792384401771415e+03
1.819349999999999909e+03 1.295330456007599423e+03
1.817779999999999973e+03 1.160726331124504213e+03
1.816210000000000036e+03 1.169580009752477054e+03
1.814640000000000100e+03 9.587914918915121234e+02
1.813069999999999936e+03 1.090260777541632706e+03
1.811490000000000009e+03 1.035557014314312255e+03
1.809920000000000073e+03 9.793422751617836184e+02
1.808349999999999909e+03 7.402853395203492255e+02
1.806779999999999973e+03 9.768862073899581446e+02
1.805210000000000036e+03 5.743448787706583971e+02
1.803630000000000109e+03 6.678323444951383863e+02
1.802059999999999945e+03 6.518069910732010612e+02
1.800490000000000009e+03 7.978394411623448832e+02
1.798910000000000082e+03 7.676017924660191056e+02
1.797339999999999918e+03 5.403502177525151637e+02
1.795769999999999982e+03 5.737564465501054656e+02
1.794190000000000055e+03 4.674936834329564590e+02
1.792619999999999891e+03 6.692158874279120937e+02
1.791039999999999964e+03 4.456698382036847761e+02
1.789470000000000027e+03 4.856080173959853710e+02
1.787890000000000100e+03 4.017786820646506385e+02
1.786309999999999945e+03 4.180078889398864703e+02
1.784740000000000009e+03 1.774202150158889708e+02
1.783160000000000082e+03 4.078661357840464916e+02
1.781579999999999927e+03 3.655705987587789423e+02
1.780009999999999991e+03 2.441570717184440582e+02
1.778430000000000064e+03 4.412782485860880115e+02
1.776849999999999909e+03 4.134579676603098051e+02
1.775269999999999982e+03 2.097962289411443635e+02
1.773690000000000055e+03 3.578930324285684037e+02
1.772109999999999900e+03 3.983483781225804705e+02
1.770529999999999973e+03 5.147622660232009366e+02
1.768950000000000045e+03 7.372346961304137949e+02
1.767369999999999891e+03 5.530656684442146798e+02
1.765789999999999964e+03 3.373551829646166880e+02
1.764210000000000036e+03 2.372032396916038124e+02
1.762630000000000109e+03 3.475098386251920601e+02
1.761049999999999955e+03 2.380749797653916175e+02
1.759470000000000027e+03 3.057986631121602841e+02
1.757890000000000100e+03 3.070808886655358947e+02
1.756309999999999945e+03 3.464216564255038975e+02
1.754720000000000027e+03 1.835034269384705112e+02
1.753140000000000100e+03 1.913616496319300495e+02
1.751559999999999945e+03 3.128784145319732488e+02
1.749970000000000027e+03 2.845372960909735411e+02
1.748390000000000100e+03 3.350715159245082759e+02
1.746799999999999955e+03 2.326485958026314620e+02
1.745220000000000027e+03 -1.268997294303408125e+02
1.743630000000000109e+03 1.209955487669358263e+02
1.742049999999999955e+03 2.569646784674332594e+02
1.740460000000000036e+03 2.237815498385316459e+01
1.738880000000000109e+03 -3.233526038214768050e+01
1.737289999999999964e+03 9.579641445339075290e+01
1.735710000000000036e+03 3.264004540208770777e+02
1.734119999999999891e+03 1.536503271755645983e+02
1.732529999999999973e+03 3.778594859225049731e+02
1.730940000000000055e+03 2.651279302616967470e+02
1.729359999999999900e+03 5.350672502164452453e+02
1.727769999999999982e+03 5.011538928747759201e+02
1.726180000000000064e+03 2.689998211253696354e+02
1.724589999999999918e+03 1.340503496819292195e+01
1.723000000000000000e+03 3.415695344032719731e+02
1.721410000000000082e+03 1.411933194306111545e+02
1.719819999999999936e+03 -1.628236099498099065e+02
1.718230000000000018e+03 -2.881253737970837392e+00
1.716640000000000100e+03 1.351203880661123549e+02
1.715049999999999955e+03 -2.565186845375574194e+02
1.713460000000000036e+03 -4.955984715489685186e+02
1.711869999999999891e+03 -2.349189729681384051e+02
1.710279999999999973e+03 -1.502801887950481614e+02
1.708680000000000064e+03 -4.863888618033415696e+02
1.707089999999999918e+03 -4.109311335803977272e+02
1.705500000000000000e+03 -5.820141197652010305e+02
1.703910000000000082e+03 -8.250378203577492968e+02
1.702309999999999945e+03 -6.129074843251582934e+02
1.700720000000000027e+03 -8.009122408678667853e+02
1.699119999999999891e+03 -6.593622127096277836e+02
1.697529999999999973e+03 -4.645480252024608490e+02
1.695940000000000055e+03 -7.383745521030505188e+02
1.694339999999999918e+03 -7.645451733615627745e+02
1.692740000000000009e+03 -7.231557609520423284e+02
1.691150000000000091e+03 -7.445036853451674688e+02
1.689549999999999955e+03 -6.810945808099968417e+02
1.687960000000000036e+03 -5.801235611532392795e+02
1.686359999999999900e+03 -5.135947644924417546e+02
1.684759999999999991e+03 -4.126059341635918827e+02
1.683170000000000073e+03 -4.571563119993661530e+02
1.681569999999999936e+03 -4.452477895448901108e+02
1.679970000000000027e+03 -5.350792334223624493e+02
1.678369999999999891e+03 -4.745506436318064516e+02
1.676769999999999982e+03 -5.797620201732061105e+02
1.675170000000000073e+03 -5.161133630465628812e+02
1.673569999999999936e+03 -5.196046722519058676e+02
1.671970000000000027e+03 -8.308359477891972347e+02
1.670369999999999891e+03 -8.466071896584580827e+02
1.668769999999999982e+03 -6.562183978596767702e+02
1.667170000000000073e+03 -1.099769572392873670e+03
1.665569999999999936e+03 -7.484607132580276811e+02
1.663970000000000027e+03 -7.452918204551388044e+02
1.662369999999999891e+03 -7.155628939842245018e+02
1.660769999999999982e+03 -9.182739338452702214e+02
1.659160000000000082e+03 -7.963200700492598116e+02
1.657559999999999945e+03 -8.070106673638074426e+02
1.655960000000000036e+03 -9.516412310103187338e+02
1.654349999999999909e+03 -1.010505763023418695e+03
1.652750000000000000e+03 -7.637158841234340798e+02
1.651150000000000091e+03 -4.499659715554262220e+02
1.649539999999999964e+03 -7.844488993776540156e+02
1.647940000000000055e+03 -8.944785442631327896e+02
1.646329999999999927e+03 -9.670402767729538027e+02
1.644730000000000018e+03 -9.039494791119432193e+02
1.643119999999999891e+03 -9.342900163093545416e+02
1.641509999999999991e+03 -1.132669767072795366e+03
1.639910000000000082e+03 -1.103698117986838042e+03
1.638299999999999955e+03 -9.906566734378793626e+02
1.636690000000000055e+03 -1.092254442454966920e+03
1.635089999999999918e+03 -1.098901941944051941e+03
1.633480000000000018e+03 -1.183178515648723987e+03
1.631869999999999891e+03 -1.129094302919449547e+03
1.630259999999999991e+03 -1.135549303756219160e+03
1.628650000000000091e+03 -1.059543518159058294e+03
1.627039999999999964e+03 -1.516476946127928386e+03
1.625430000000000064e+03 -1.275649587662846898e+03
1.623819999999999936e+03 -1.131261442763814557e+03
1.622210000000000036e+03 -1.236712511430843733e+03
1.620599999999999909e+03 -9.976027936639147811e+02
1.618990000000000009e+03 -1.196032289463033521e+03
1.617380000000000109e+03 -6.962009988281970436e+02
1.615769999999999982e+03 -7.224089217594118963e+02
1.614160000000000082e+03 -4.460560582566758967e+02
1.612549999999999955e+03 -5.683424083199970482e+02
1.610930000000000064e+03 -3.943517917110621056e+02
1.609319999999999936e+03 -5.025161913509873557e+02
1.607710000000000036e+03 -7.205198045569522947e+02
1.606089999999999918e+03 -5.433453160791395931e+02
1.604480000000000018e+03 -8.433269788617144513e+02
1.602859999999999900e+03 -7.543297825044646743e+02
1.601250000000000000e+03 -8.340894948636523623e+02
1.599630000000000109e+03 -1.070069590626964782e+03
1.598019999999999982e+03 -1.233207352562756569e+03
1.596400000000000091e+03 -1.199764740446629730e+03
1.594789999999999964e+03 -1.419880551959024160e+03
1.593170000000000073e+03 -1.277915231963455881e+03
1.591549999999999955e+03 -1.221088368077897030e+03
1.589940000000000055e+03 -1.156421065177462879e+03
1.588319999999999936e+03 -1.175271493412463315e+03
1.586700000000000045e+03 -1.299060377757465176e+03
1.585079999999999927e+03 -1.317687718212469917e+03
1.583470000000000027e+03 -1.350176136909758497e+03
1.581849999999999909e+03 -1.384080769485328346e+03
1.580230000000000018e+03 -1.456623858170893072e+03
1.578609999999999900e+03 -1.417805402966459951e+03
1.576990000000000009e+03 -1.263225403872042079e+03
1.575369999999999891e+03 -1.338583860887629271e+03
1.573750000000000000e+03 -1.267280774013197515e+03
1.572130000000000109e+03 -1.108116143248786102e+03
1.570500000000000000e+03 -1.198664307257644396e+03
1.568880000000000109e+03 -1.390876208812675031e+03
1.567259999999999991e+03 -1.063526566477710730e+03
1.565640000000000100e+03 -1.263315380252759496e+03
1.564019999999999982e+03 -1.281142650137797318e+03
1.562390000000000100e+03 -1.138580812948279345e+03
1.560769999999999982e+03 -1.154784615152770129e+03
1.559150000000000091e+03 -6.366268734672739811e+02
1.557519999999999982e+03 4.479211173395306105e+02
1.555900000000000091e+03 1.578202326705591986e+03
1.554269999999999982e+03 1.032374547339117271e+03
1.552650000000000091e+03 8.067922438571986277e+01
1.551019999999999982e+03 -2.337243251540239726e+02
1.549400000000000091e+03 -9.845961804268736159e+02
1.547769999999999982e+03 -8.511755001398923923e+02
1.546140000000000100e+03 -7.791925138167462137e+02
1.544519999999999982e+03 -7.456789776184850780e+02
1.542890000000000100e+03 -9.362717614686189336e+02
1.541259999999999991e+03 -7.766022392825652787e+02
1.539640000000000100e+03 -9.871033116132093710e+02
1.538009999999999991e+03 -6.968095596004277468e+02
1.536380000000000109e+03 -6.414535015514738916e+02
1.534750000000000000e+03 -6.751351374663572642e+02
1.533119999999999891e+03 -5.567544673450538539e+02
1.531490000000000009e+03 -4.415114911875862163e+02
1.529859999999999900e+03 -2.112062089939427096e+02
1.528230000000000018e+03 -4.256386207641189685e+02
1.526599999999999909e+03 -6.889087264981317276e+02
1.524970000000000027e+03 -4.355165261959664349e+02
1.523339999999999918e+03 -3.583620198576245457e+02
1.521710000000000036e+03 2.525479251687647775e+01
1.520069999999999936e+03 -1.871286015721198055e+02
1.518440000000000055e+03 -5.328679487963745487e+01
1.516809999999999945e+03 -5.568268215098578366e+01
1.515180000000000064e+03 2.308373661382938735e+01
1.513539999999999964e+03 -2.071485197573092591e+02
1.511910000000000082e+03 1.487428933254850563e+02
1.510269999999999982e+03 5.323639810861641308e+01
1.508640000000000100e+03 6.752805509378958959e+00
1.507000000000000000e+03 1.316720714467883226e+02
1.505369999999999891e+03 2.444134731655103678e+02
1.503730000000000018e+03 2.995850025719846599e+01
1.502099999999999909e+03 2.069248962938909244e+02
1.500460000000000036e+03 1.501956845398490259e+02
1.498819999999999936e+03 1.102295456582796760e+02
1.497190000000000055e+03 2.215836242947370920e+02
1.495549999999999955e+03 2.077432465674501145e+02
1.493910000000000082e+03 2.550659417126335029e+02
1.492269999999999982e+03 1.452517097303025366e+02
1.490640000000000100e+03 3.855615924831363373e+01
1.489000000000000000e+03 -2.755323115797364153e+02
1.487359999999999900e+03 -2.843577095353175537e+02
1.485720000000000027e+03 2.726799653815869533e+02
1.484079999999999927e+03 3.263807131709691021e+02
1.482440000000000055e+03 3.755445338328281650e+02
1.480799999999999955e+03 9.867142736717505613e+01
1.479160000000000082e+03 -1.193860622600186616e+01
1.477519999999999982e+03 1.471144330532952154e+02
1.475869999999999891e+03 6.533783978933934122e+02
1.474230000000000018e+03 7.271579675083448819e+02
1.472589999999999918e+03 1.079500609995771811e+03
1.470950000000000045e+03 9.995063253556763812e+02
1.469299999999999955e+03 9.227245069841846998e+02
1.467660000000000082e+03 1.189756752679742931e+03
1.466019999999999982e+03 1.087152071247772255e+03
1.464369999999999891e+03 1.197661012201529957e+03
1.462730000000000018e+03 9.796828611052042106e+02
1.461079999999999927e+03 1.113119103921053465e+03
1.459440000000000055e+03 1.449967483160377014e+03
1.457789999999999964e+03 1.164031027838296723e+03
1.456150000000000091e+03 1.330805937413268111e+03
1.454500000000000000e+03 1.198496783953272825e+03
1.452849999999999909e+03 1.474751474892189435e+03
1.451210000000000036e+03 1.589916372265972313e+03
1.449559999999999945e+03 1.670298365066973929e+03
1.447910000000000082e+03 1.993444202266891807e+03
1.446259999999999991e+03 2.217853883865725948e+03
1.444609999999999900e+03 2.484727409863487992e+03
1.442970000000000027e+03 2.428609209962403838e+03
1.441319999999999936e+03 2.436210037822245795e+03
1.439670000000000073e+03 2.215074710080993100e+03
1.438019999999999982e+03 1.709303226738662488e+03
1.436369999999999891e+03 1.556695587795249594e+03
1.434720000000000027e+03 1.231551793250753690e+03
1.433059999999999945e+03 1.152029735017429630e+03
1.431410000000000082e+03 9.529140162065050390e+02
1.429759999999999991e+03 6.707621417945119902e+02
1.428109999999999900e+03 7.972741117814366589e+02
1.426460000000000036e+03 4.306499261672724970e+02
1.424799999999999955e+03 3.864494138880982064e+02
1.423150000000000091e+03 3.045533040075206372e+02
1.421500000000000000e+03 8.052103852585787536e+01
1.419839999999999918e+03 2.241136095315050625e+02
1.418190000000000055e+03 2.059094197834238003e+02
1.416529999999999973e+03 2.271308427392214071e+02
1.414880000000000109e+03 1.864547287247223721e+02
1.413220000000000027e+03 2.063050036306813126e+02
1.411569999999999936e+03 2.215569653497732361e+02
1.409910000000000082e+03 1.796360922058702272e+02
1.408259999999999991e+03 -2.228387034145271173e+01
1.406599999999999909e+03 -1.152758915352060285e+02
1.404940000000000055e+03 4.369670788653456839e+01
1.403279999999999973e+03 2.464339279237574374e+02
1.401630000000000109e+03 8.417050377935447614e+01
1.399970000000000027e+03 1.106365757667226717e+02
1.398309999999999945e+03 2.154672683695789601e+02
1.396650000000000091e+03 1.620625815879138827e+02
1.394990000000000009e+03 1.343225154217361705e+02
1.393329999999999927e+03 2.995470698710487341e+02
1.391670000000000073e+03 2.237362449358370213e+02
1.390009999999999991e+03 4.597900406161134015e+02
1.388349999999999909e+03 5.332084569118705986e+02
1.386690000000000055e+03 1.054914938231086126e+02
1.385029999999999973e+03 2.241391513498456334e+02
1.383369999999999891e+03 9.015142949204891920e+01
1.381700000000000045e+03 3.413982644166499085e+02
1.380039999999999964e+03 2.316401730706384114e+02
1.378380000000000109e+03 2.376467023401128245e+02
1.376710000000000036e+03 3.821889585794961022e+02
1.375049999999999955e+03 2.276251183607600979e+02
1.373390000000000100e+03 2.264258987575049105e+02
1.371720000000000027e+03 3.244635763116639282e+02
1.370059999999999945e+03 3.338939872201881371e+02
1.368390000000000100e+03 3.073620761928286811e+02
1.366730000000000018e+03 1.278221176131519314e+02
1.365059999999999945e+03 1.495206180042696360e+02
1.363390000000000100e+03 6.178451991756810457e+01
1.361730000000000018e+03 -1.264607982540328521e+02
1.360059999999999945e+03 8.753351507775732898e+01
1.358390000000000100e+03 1.798932299317202705e+02
1.356730000000000018e+03 1.988425521682038379e+02
1.355059999999999945e+03 3.034326784406475781e+02
1.353390000000000100e+03 6.178820623528372380e+01
1.351720000000000027e+03 1.560091355520889920e+02
1.350049999999999955e+03 -1.790453360891842749e+01
1.348380000000000109e+03 2.394719875225564465e+01
1.346710000000000036e+03 1.870643326356148464e+02
1.345039999999999964e+03 1.182468680411438982e+02
1.343369999999999891e+03 -9.410519503114119289e+01
1.341700000000000045e+03 3.470814341876030085e+01
1.340029999999999973e+03 -6.821311660915671382e+01
1.338359999999999900e+03 7.423102488510266994e+01
1.336680000000000064e+03 1.823210615517855331e+02
1.335009999999999991e+03 2.723963977162893570e+02
1.333339999999999918e+03 3.373713540297831059e+01
1.331660000000000082e+03 -1.432750545152011910e+02
1.329990000000000009e+03 -2.113031221582714352e+02
1.328319999999999936e+03 -1.731657882791587326e+02
1.326640000000000100e+03 -1.364802047822013265e+02
1.324970000000000027e+03 -2.997116762328478217e+02
1.323289999999999964e+03 -2.403941124688280979e+02
1.321619999999999891e+03 -2.497943892492185114e+02
1.319940000000000055e+03 -2.620448452181262837e+02
1.318259999999999991e+03 -1.801291140680223180e+02
1.316589999999999918e+03 -2.579324030301104358e+02
1.314910000000000082e+03 -2.688469161292960052e+01
1.313230000000000018e+03 1.831292069232549693e+02
1.311559999999999945e+03 5.792290577947278507e+01
1.309880000000000109e+03 5.206878458273058641e+01
1.308200000000000045e+03 2.502808505049979431e+02
1.306519999999999982e+03 1.149591035462726722e+02
1.304839999999999918e+03 3.549035437065613223e+02
1.303160000000000082e+03 4.683141709858609829e+02
1.301480000000000018e+03 7.528909853841614677e+02
1.299799999999999955e+03 8.559339869014802389e+02
1.298119999999999891e+03 1.030343175537804200e+03
1.296440000000000055e+03 1.258218551293131895e+03
1.294759999999999991e+03 1.391060114167481515e+03
1.293069999999999936e+03 1.076458584640222398e+03
1.291390000000000100e+03 5.777329157235290040e+02
1.289710000000000036e+03 8.326734339258473483e+02
1.288029999999999973e+03 4.442801392471701547e+02
1.286339999999999918e+03 4.245453303957583557e+02
1.284660000000000082e+03 4.033848039260446967e+02
1.282980000000000018e+03 4.667904645753405930e+02
1.281289999999999964e+03 4.398557953098061262e+02
1.279609999999999900e+03 4.574942241680655570e+02
1.277920000000000073e+03 4.677931133984457119e+02
1.276240000000000009e+03 8.695643104656774085e+02
1.274549999999999955e+03 6.619967581919809163e+02
1.272859999999999900e+03 9.867961833242516150e+02
1.271180000000000064e+03 8.177667296904037357e+02
1.269490000000000009e+03 8.698997133185948769e+02
1.267799999999999955e+03 6.700996743527648505e+02
1.266109999999999900e+03 1.012666612792891101e+03
1.264420000000000073e+03 8.531005286389809044e+02
1.262740000000000009e+03 8.979035864839715941e+02
1.261049999999999955e+03 7.504710608259883884e+02
1.259359999999999900e+03 1.161005512573981832e+03
1.257670000000000073e+03 9.811069417279286426e+02
1.255980000000000018e+03 1.129775348287850647e+03
1.254289999999999964e+03 8.880107322537405707e+02
1.252599999999999909e+03 9.821130936255940469e+02
1.250900000000000091e+03 1.062983042022577138e+03
1.249210000000000036e+03 1.121619754522387666e+03
1.247519999999999982e+03 1.237923444428153744e+03
1.245829999999999927e+03 1.383794111739895015e+03
1.244140000000000100e+03 1.336231756457596930e+03
1.242440000000000055e+03 1.279938972125550208e+03
1.240750000000000000e+03 1.538110967971209902e+03
1.239059999999999945e+03 1.718049941222823691e+03
1.237359999999999900e+03 1.734259676717800176e+03
1.235670000000000073e+03 1.865533001097359374e+03
1.233970000000000027e+03 1.976277882697373570e+03
1.232279999999999973e+03 1.961585558204878907e+03
1.230579999999999927e+03 1.955865585909927177e+03
1.228880000000000109e+03 2.052013385998023296e+03
1.227190000000000055e+03 2.072822786355452990e+03
1.225490000000000009e+03 1.871505732548590458e+03
1.223789999999999964e+03 2.176856451124771411e+03
1.222089999999999918e+03 2.158274942084026407e+03
1.220400000000000091e+03 2.498853441013354313e+03
1.218700000000000045e+03 2.673207078077637561e+03
1.217000000000000000e+03 2.909228487524975208e+03
1.215299999999999955e+03 3.346917669355367252e+03
1.213599999999999909e+03 3.465174623568807874e+03
1.211900000000000091e+03 3.636499350165307987e+03
1.210200000000000045e+03 3.832691849144870503e+03
1.208500000000000000e+03 4.268552120507487416e+03
1.206799999999999955e+03 4.314880164253154362e+03
1.205099999999999909e+03 4.525775980381880800e+03
1.203390000000000100e+03 4.877751319917388173e+03
1.201690000000000055e+03 5.229583079473290127e+03
1.199990000000000009e+03 5.882282611412269034e+03
1.198289999999999964e+03 5.951949915734290698e+03
1.196579999999999927e+03 6.445998340452475531e+03
1.194880000000000109e+03 7.049701588201682171e+03
1.193170000000000073e+03 7.415786756014273124e+03
1.191470000000000027e+03 8.183525947190672014e+03
1.189759999999999991e+03 8.764847858097669814e+03
1.188059999999999945e+03 9.167022992701262410e+03
1.186349999999999909e+03 9.704081646702659782e+03
1.184650000000000091e+03 1.022759272473343299e+04
1.182940000000000055e+03 1.074378812182924594e+04
1.181230000000000018e+03 1.147505209097533589e+04
1.179529999999999973e+03 1.222796728347743192e+04
1.177819999999999936e+03 1.277726799571792071e+04
1.176109999999999900e+03 1.378013728000867923e+04
1.174400000000000091e+03 1.397037513634972129e+04
1.172690000000000055e+03 1.445918156474103307e+04
1.170980000000000018e+03 1.562935656518262840e+04
1.169269999999999982e+03 1.619520013767448836e+04
1.167559999999999945e+03 1.656931228221662604e+04
1.165849999999999909e+03 1.759659299880903200e+04
1.164140000000000100e+03 1.865284228745172732e+04
1.162430000000000064e+03 1.925716014814468144e+04
1.160720000000000027e+03 2.014764658088791839e+04
1.159009999999999991e+03 2.110050158568142797e+04
1.157289999999999964e+03 2.177434772429931763e+04
1.155579999999999927e+03 2.303894027419952181e+04
1.153869999999999891e+03 2.339970139614999061e+04
1.152160000000000082e+03 2.425653109015074733e+04
1.150440000000000055e+03 2.549525352434550587e+04
1.148730000000000018e+03 2.613402076345295063e+04
1.147009999999999991e+03 2.672748154711175448e+04
1.145299999999999955e+03 2.781188633132588438e+04
1.143579999999999927e+03 2.897618546444872482e+04
1.141869999999999891e+03 2.980182779376954204e+04
1.140150000000000091e+03 3.070306527635642851e+04
1.138430000000000064e+03 3.185297213535092669e+04
1.136720000000000027e+03 3.275772098283485684e+04
1.135000000000000000e+03 3.387616619129340688e+04
1.133279999999999973e+03 3.461448077615957300e+04
1.131559999999999945e+03 3.566086473743337410e+04
1.129839999999999918e+03 3.705461807511478401e+04
1.128130000000000109e+03 3.798511138687466155e+04
1.126410000000000082e+03 3.905940307402011967e+04
1.124690000000000055e+03 4.088196413757318805e+04
1.122970000000000027e+03 4.259909457753389142e+04
1.121250000000000000e+03 4.356859439390222542e+04
1.119519999999999982e+03 4.541829500576337159e+04
1.117799999999999955e+03 4.596283397829816386e+04
1.116079999999999927e+03 4.698634232724056346e+04
1.114359999999999900e+03 4.763642005259059079e+04
1.112640000000000100e+03 4.848066715434825164e+04
1.110910000000000082e+03 4.973551707069981785e+04
1.109190000000000055e+03 5.120140332862393552e+04
1.107470000000000027e+03 5.184295896295567218e+04
1.105740000000000009e+03 5.360971862428000895e+04
1.104019999999999982e+03 5.494641341477819515e+04
1.102289999999999964e+03 5.620021304131647048e+04
1.100569999999999936e+03 5.748514698798111203e+04
1.098839999999999918e+03 5.865668657973333029e+04
1.097119999999999891e+03 6.054755968256441702e+04
1.095390000000000100e+03 6.211923923953055782e+04
1.093660000000000082e+03 6.305318898195181100e+04
1.091940000000000055e+03 6.436877102070819819e+04
1.090210000000000036e+03 6.502266072834337683e+04
1.088480000000000018e+03 6.815762062143365620e+04
1.086750000000000000e+03 6.928785069997905521e+04
1.085019999999999982e+03 7.037855096397954912e+04
1.083299999999999955e+03 7.294798149817886588e+04
1.081569999999999936e+03 7.446822172739329108e+04
1.079839999999999918e+03 7.624353214206281700e+04
1.078109999999999900e+03 7.824191274218744365e+04
1.076369999999999891e+03 7.944850506580855290e+04
1.074640000000000100e+03 8.174202644253964536e+04
1.072910000000000082e+03 8.427561800472586765e+04
1.071180000000000064e+03 8.552127975236717612e+04
1.069450000000000045e+03 8.736301168546359986e+04
1.067720000000000027e+03 8.946181380401512433e+04
1.065980000000000018e+03 9.192983008258580230e+04
1.064250000000000000e+03 9.410477297774380713e+04
1.062509999999999991e+03 9.620793084665859351e+04
1.060779999999999973e+03 9.893601451842306415e+04
1.059049999999999955e+03 1.009141683756426501e+05
1.057309999999999945e+03 1.022815384260528808e+05
1.055579999999999927e+03 1.042198330598789325e+05
1.053839999999999918e+03 1.062673447006332572e+05
1.052099999999999909e+03 1.089959273405802960e+05
1.050369999999999891e+03 1.113754333421642077e+05
1.048630000000000109e+03 1.136521575724553259e+05
1.046890000000000100e+03 1.161599528019391582e+05
1.045150000000000091e+03 1.181068190306157048e+05
1.043420000000000073e+03 1.207116069911088562e+05
1.041680000000000064e+03 1.227576148101294821e+05
1.039940000000000055e+03 1.248916936283428367e+05
1.038200000000000045e+03 1.268478434457489057e+05
1.036460000000000036e+03 1.304720642623476742e+05
1.034720000000000027e+03 1.319003560781391570e+05
1.032980000000000018e+03 1.341817188931233541e+05
1.031240000000000009e+03 1.369281527073002653e+05
1.029500000000000000e+03 1.391046575206698908e+05
1.027750000000000000e+03 1.412803862729803950e+05
1.026009999999999991e+03 1.438060334927767690e+05
1.024269999999999982e+03 1.467007517117658863e+05
1.022529999999999973e+03 1.488335409299476887e+05
1.020779999999999973e+03 1.507805557215808076e+05
1.019039999999999964e+03 1.541084873461893585e+05
1.017299999999999955e+03 1.557894899699906528e+05
1.015549999999999955e+03 1.575777193937122938e+05
1.013809999999999945e+03 1.603708644239403657e+05
1.012059999999999945e+03 1.625982370725165238e+05
1.010320000000000050e+03 1.638665245091713150e+05
1.008570000000000050e+03 1.668990403826019610e+05
1.006820000000000050e+03 1.679356280736530898e+05
1.005080000000000041e+03 1.711531293239687220e+05
1.003330000000000041e+03 1.717688602398743096e+05
1.001580000000000041e+03 1.734446629734003800e+05
9.998319999999999936e+02 1.750815056269252964e+05
9.980839999999999463e+02 1.769054199340098712e+05
9.963350000000000364e+02 1.781004219254367054e+05
9.945850000000000364e+02 1.792165117242513807e+05
9.928350000000000364e+02 1.814326733406865096e+05
9.910850000000000364e+02 1.818329067747420922e+05
9.893350000000000364e+02 1.825252120264181285e+05
9.875839999999999463e+02 1.843886053317138285e+05
9.858319999999999936e+02 1.857390868138154619e+05
9.840810000000000173e+02 1.872396239596156229e+05
9.823279999999999745e+02 1.884052657236251980e+05
9.805760000000000218e+02 1.889259631513332715e+05
9.788229999999999791e+02 1.878967490023605642e+05
9.770689999999999600e+02 1.895166234000340046e+05
9.753160000000000309e+02 1.887125534202969866e+05
9.735620000000000118e+02 1.881055720694475458e+05
9.718070000000000164e+02 1.894896794708830421e+05
9.700520000000000209e+02 1.906488591009116499e+05
9.682970000000000255e+02 1.901351109595333983e+05
9.665410000000000537e+02 1.885204517762195319e+05
9.647849999999999682e+02 1.888358649038340372e+05
9.630280000000000200e+02 1.883803671542303055e+05
9.612709999999999582e+02 1.882349417979370919e+05
9.595140000000000100e+02 1.871715888349543675e+05
9.577559999999999718e+02 1.868433252007673727e+05
9.559980000000000473e+02 1.863181340423199581e+05
9.542390000000000327e+02 1.844810323775732249e+05
9.524800000000000182e+02 1.842360032710420201e+05
9.507210000000000036e+02 1.822170467227262561e+05
9.489610000000000127e+02 1.808641798743597174e+05
9.472000000000000455e+02 1.794914028497618274e+05
9.454400000000000546e+02 1.771066813241450582e+05
9.436789999999999736e+02 1.747480497048667166e+05
9.419170000000000300e+02 1.738725081158165704e+05
9.401549999999999727e+02 1.712760393326911144e+05
9.383930000000000291e+02 1.689706433554903488e+05
9.366309999999999718e+02 1.666403201842143317e+05
9.348680000000000518e+02 1.640630872910867911e+05
9.331040000000000418e+02 1.612459448001382116e+05
9.313400000000000318e+02 1.595538752804883406e+05
9.295760000000000218e+02 1.563998787321371783e+05
9.278110000000000355e+02 1.532959727927997301e+05
9.260460000000000491e+02 1.514461399075183435e+05
9.242809999999999491e+02 1.478353800762930186e+05
9.225149999999999864e+02 1.450207110610333912e+05
9.207480000000000473e+02 1.423371329859810648e+05
9.189819999999999709e+02 1.385096102858559170e+05
9.172150000000000318e+02 1.355841786087891960e+05
9.154470000000000027e+02 1.324518380790927913e+05
9.136789999999999736e+02 1.282125708520059125e+05
9.119109999999999445e+02 1.257163769275285595e+05
9.101420000000000528e+02 1.230292743577252550e+05
9.083730000000000473e+02 1.194012451734764618e+05
9.066029999999999518e+02 1.156023075098385452e+05
9.048329999999999700e+02 1.126454433147469390e+05
9.030629999999999882e+02 1.091806525882016722e+05
9.012920000000000300e+02 1.067669535898055765e+05
8.995209999999999582e+02 1.032393281429945491e+05
8.977490000000000236e+02 9.876079459045710973e+04
8.959769999999999754e+02 9.645033467259039753e+04
8.942050000000000409e+02 9.299694838939444162e+04
8.924320000000000164e+02 8.963665420824482862e+04
8.906589999999999918e+02 8.647443374489853159e+04
8.888849999999999909e+02 8.368130554991058307e+04
8.871109999999999900e+02 8.078325115590541100e+04
8.853360000000000127e+02 7.717228919666443835e+04
8.835620000000000118e+02 7.495438244622622733e+04
8.817859999999999445e+02 7.242388693080983649e+04
8.800109999999999673e+02 6.998614662419623346e+04
8.782340000000000373e+02 6.790021780242421664e+04
8.764579999999999700e+02 6.529174418945499201e+04
8.746810000000000400e+02 6.303076342761627166e+04
8.729039999999999964e+02 6.095085671658011415e+04
8.711259999999999764e+02 5.885514302336169203e+04
8.693479999999999563e+02 5.669450346431290382e+04
8.675689999999999600e+02 5.452365708986289246e+04
8.657899999999999636e+02 5.342888493299645052e+04
8.640109999999999673e+02 5.117428699371361290e+04
8.622309999999999945e+02 4.949808244762309914e+04
8.604510000000000218e+02 4.860355220257703331e+04
8.586699999999999591e+02 4.671131551769193902e+04
8.568890000000000100e+02 4.572825321735906618e+04
8.551069999999999709e+02 4.459548464424960548e+04
8.533250000000000455e+02 4.392219053924703621e+04
8.515430000000000064e+02 4.252967090235137584e+04
8.497599999999999909e+02 4.117864520162442204e+04
8.479769999999999754e+02 4.092879405260593194e+04
8.461939999999999600e+02 3.997981745529591717e+04
8.444099999999999682e+02 3.914763500321717584e+04
8.426259999999999764e+02 3.869702718649537564e+04
8.408410000000000082e+02 3.844841368234870606e+04
8.390560000000000400e+02 3.782057489725434425e+04
8.372699999999999818e+02 3.739043059217276459e+04
8.354840000000000373e+02 3.704466108988577616e+04
8.336970000000000027e+02 3.706988623514301435e+04
8.319109999999999445e+02 3.688536638032808696e+04
8.301230000000000473e+02 3.669836118540882308e+04
8.283360000000000127e+02 3.732111099041738635e+04
8.265480000000000018e+02 3.682235569440806285e+04
8.247590000000000146e+02 3.747019542317015294e+04
8.229700000000000273e+02 3.752941020623507939e+04
8.211810000000000400e+02 3.789330004360283783e+04
8.193909999999999627e+02 3.829068511550808762e+04
8.176009999999999991e+02 3.911804532564605324e+04
8.158099999999999454e+02 3.961150093822817144e+04
8.140190000000000055e+02 4.018713177301979158e+04
8.122279999999999518e+02 4.117423783002090931e+04
8.104360000000000355e+02 4.218473949946675566e+04
8.086440000000000055e+02 4.326181647514580254e+04
8.068509999999999991e+02 4.478198923136385565e+04
8.050579999999999927e+02 4.613843737788566796e+04
8.032649999999999864e+02 4.769636091471126565e+04
8.014710000000000036e+02 4.878968044231094973e+04
7.996760000000000446e+02 5.065869608689614688e+04
7.978819999999999482e+02 5.207546660540881567e+04
7.960860000000000127e+02 5.367145405182348622e+04
7.942910000000000537e+02 5.491309637216562260e+04
7.924950000000000045e+02 5.700053506205677695e+04
7.906979999999999791e+02 5.864597024784907262e+04
7.889020000000000437e+02 5.986086026545148343e+04
7.871040000000000418e+02 6.103346780059905723e+04
7.853070000000000164e+02 6.237393016755671852e+04
7.835090000000000146e+02 6.408928928326046298e+04
7.817100000000000364e+02 6.574004527420306113e+04
7.799109999999999445e+02 6.657847716085790307e+04
7.781119999999999663e+02 6.810708494322493789e+04
7.763120000000000118e+02 6.959758981176945963e+04
7.745119999999999436e+02 7.096397066042511142e+04
7.727110000000000127e+02 7.247834876410290599e+04
7.709099999999999682e+02 7.296620293233761913e+04
7.691090000000000373e+02 7.383293316512924503e+04
7.673070000000000164e+02 7.570376086411616416e+04
7.655040000000000191e+02 7.668888615607259271e+04
7.637019999999999982e+02 7.766126619541678519e+04
7.618990000000000009e+02 7.849604391227010638e+04
7.600950000000000273e+02 7.941191943347710185e+04
7.582910000000000537e+02 8.045787127285980387e+04
7.564869999999999663e+02 8.158289943041821243e+04
7.546820000000000164e+02 8.203402560385517427e+04
7.528769999999999527e+02 8.344122818010124320e+04
7.510710000000000264e+02 8.412052894153958187e+04
7.492649999999999864e+02 8.431090619046734355e+04
7.474579999999999700e+02 8.594838179399487854e+04
7.456509999999999536e+02 8.636093396973900963e+04
7.438440000000000509e+02 8.757156271769976593e+04
7.420359999999999445e+02 8.858529003213693795e+04
7.402279999999999518e+02 8.906909400356482365e+04
7.384189999999999827e+02 8.994499671106421738e+04
7.366100000000000136e+02 9.069597616037535772e+04
7.348010000000000446e+02 9.076603235149821558e+04
7.329909999999999854e+02 9.229518749080374255e+04
7.311810000000000400e+02 9.338941945678889169e+04
7.293700000000000045e+02 9.343275054073944921e+04
7.275589999999999691e+02 9.473415853628443438e+04
7.257469999999999573e+02 9.543466581967132515e+04
7.239349999999999454e+02 9.675225009961437900e+04
7.221230000000000473e+02 9.717491137611356680e+04
7.203099999999999454e+02 9.827567215291757020e+04
7.184969999999999573e+02 9.887151001128634380e+04
7.166829999999999927e+02 9.999244754002404807e+04
7.148690000000000282e+02 1.007834622353820305e+05
7.130539999999999736e+02 1.014845767712668749e+05
7.112390000000000327e+02 1.021767685588744207e+05
7.094239999999999782e+02 1.034120375982046535e+05
7.076079999999999472e+02 1.044564066908764071e+05
7.057920000000000300e+02 1.051238531204201718e+05
7.039750000000000227e+02 1.057093997736509918e+05
7.021580000000000155e+02 1.064870238489500480e+05
7.003400000000000318e+02 1.072557483183754957e+05
6.985220000000000482e+02 1.085775502951122762e+05
6.967039999999999509e+02 1.096584297791604040e+05
6.948849999999999909e+02 1.100034098705013603e+05
6.930660000000000309e+02 1.110484675544436614e+05
6.912459999999999809e+02 1.118176260163057304e+05
6.894260000000000446e+02 1.127468621561061009e+05
6.876059999999999945e+02 1.137181759738447290e+05
6.857849999999999682e+02 1.153745907829040516e+05
6.839629999999999654e+02 1.156961067113949830e+05
6.821420000000000528e+02 1.168166770898021496e+05
6.803189999999999600e+02 1.178503721146353200e+05
6.784969999999999573e+02 1.183081215893847402e+05
6.766730000000000018e+02 1.198589959669930104e+05
6.748500000000000227e+02 1.211659247945175448e+05
6.730259999999999536e+02 1.218739551688617939e+05
6.712019999999999982e+02 1.227280635629610188e+05
6.693769999999999527e+02 1.247342736749759351e+05
6.675520000000000209e+02 1.260405618923172442e+05
6.657259999999999991e+02 1.275429519987640087e+05
6.638999999999999773e+02 1.281174202961554984e+05
6.620729999999999791e+02 1.294989906539359799e+05
6.602459999999999809e+02 1.321986392883264343e+05
6.584189999999999827e+02 1.331803661993268470e+05
6.565910000000000082e+02 1.353471953849379497e+05
6.547630000000000337e+02 1.371211029328711738e+05
6.529339999999999691e+02 1.382531129268862423e+05
6.511050000000000182e+02 1.399252013689824380e+05
6.492749999999999773e+02 1.419073924287254922e+05
6.474450000000000500e+02 1.449236620223555656e+05
6.456150000000000091e+02 1.472750101498727454e+05
6.437839999999999918e+02 1.494164611096101871e+05
6.419529999999999745e+02 1.504999906890875427e+05
6.401209999999999809e+02 1.542536232725377486e+05
6.382889999999999873e+02 1.571743345616275910e+05
6.364560000000000173e+02 1.601841490265367029e+05
6.346230000000000473e+02 1.621880422830320604e+05
6.327899999999999636e+02 1.643830143311136926e+05
6.309560000000000173e+02 1.680540897699397756e+05
6.291219999999999573e+02 1.703852440863456868e+05
6.272870000000000346e+02 1.742005019655300421e+05
6.254519999999999982e+02 1.773478388083346654e+05
6.236159999999999854e+02 1.808902793860454694e+05
6.217799999999999727e+02 1.839617990134638967e+05
6.199439999999999600e+02 1.870263976905899181e+05
6.181069999999999709e+02 1.907271003178991377e+05
6.162690000000000055e+02 1.939009070246281044e+05
6.144320000000000164e+02 1.983437679666998447e+05
6.125929999999999609e+02 2.015017581041549856e+05
6.107549999999999955e+02 2.072308024769529002e+05
6.089160000000000537e+02 2.105839511877843470e+05
6.070760000000000218e+02 2.148942043660265626e+05
6.052359999999999900e+02 2.193915369387947721e+05
6.033959999999999582e+02 2.230529489060889464e+05
6.015549999999999500e+02 2.290304655565398862e+05
5.997140000000000555e+02 2.333460616878386645e+05
5.978719999999999573e+02 2.386187626749848132e+05
5.960299999999999727e+02 2.428385432293475315e+05
5.941870000000000118e+02 2.489444288123419974e+05
5.923440000000000509e+02 2.530023940489687084e+05
5.905009999999999764e+02 2.582004389392276644e+05
5.886570000000000391e+02 2.612575890742161137e+05
5.868120000000000118e+02 2.649338445836630999e+05
5.849679999999999609e+02 2.703871542420841288e+05
5.831219999999999573e+02 2.733615950823697494e+05
5.812770000000000437e+02 2.772000900716294418e+05
5.794310000000000400e+02 2.825006906949463300e+05
5.775839999999999463e+02 2.821833970821902622e+05
5.757369999999999663e+02 2.881001834691979457e+05
5.738899999999999864e+02 2.903010498559694970e+05
5.720420000000000300e+02 2.931410222232347587e+05
5.701939999999999600e+02 2.945730746769140242e+05
5.683450000000000273e+02 2.960412332844342454e+05
5.664959999999999809e+02 2.980964720650655217e+05
5.646459999999999582e+02 2.981098171729787136e+05
5.627960000000000491e+02 2.995112425407469855e+05
5.609460000000000264e+02 3.021347481683702208e+05
5.590950000000000273e+02 3.030033603401939617e+05
5.572430000000000518e+02 3.032230791864396306e+05
5.553909999999999627e+02 3.063798784661690006e+05
5.535389999999999873e+02 3.057347581793819554e+05
5.516870000000000118e+02 3.052657183260785532e+05
5.498329999999999700e+02 3.072028119093261776e+05
5.479800000000000182e+02 3.093959595548507059e+05
5.461259999999999764e+02 3.111572143092205515e+05
5.442709999999999582e+02 3.122685763028681977e+05
5.424160000000000537e+02 3.143610189907941385e+05
5.405610000000000355e+02 3.140415423729984323e+05
5.387050000000000409e+02 3.161591732119853259e+05
5.368490000000000464e+02 3.179268848322759732e+05
5.349919999999999618e+02 3.192527040834467625e+05
5.331349999999999909e+02 3.224086042029935634e+05
5.312780000000000200e+02 3.243045851909163757e+05
5.294199999999999591e+02 3.235116740274586482e+05
5.275610000000000355e+02 3.269398708433344145e+05
5.257019999999999982e+02 3.271741487018713960e+05
5.238429999999999609e+02 3.295625076030695927e+05
5.219829999999999472e+02 3.295069747015750036e+05
5.201230000000000473e+02 3.297255229299546918e+05
5.182619999999999436e+02 3.279741795301144011e+05
5.164009999999999536e+02 3.288379173474082490e+05
5.145399999999999636e+02 3.289817363818361191e+05
5.126779999999999973e+02 3.268306640062524239e+05
5.108149999999999977e+02 3.266357003516525147e+05
5.089519999999999982e+02 3.247888180888470961e+05
5.070889999999999986e+02 3.232770172178362263e+05
5.052250000000000227e+02 3.231033252862519003e+05
5.033609999999999900e+02 3.199637148338627303e+05
5.014959999999999809e+02 3.196442134957481758e+05
4.996309999999999718e+02 3.173797937242761836e+05
4.977649999999999864e+02 3.160974832420206512e+05
4.958990000000000009e+02 3.150102544139021193e+05
4.940330000000000155e+02 3.139251072399205877e+05
4.921659999999999968e+02 3.109080695739500807e+05
4.902989999999999782e+02 3.090441136496578110e+05
4.884309999999999832e+02 3.080552674085061299e+05
4.865629999999999882e+02 3.063975029966208385e+05
4.846940000000000168e+02 3.059828484430993558e+05
4.828249999999999886e+02 3.032802758064793888e+05
4.809549999999999841e+02 3.026848132035403396e+05
4.790849999999999795e+02 3.012374326051847893e+05
4.772139999999999986e+02 2.991261622159209219e+05
4.753430000000000177e+02 2.960559739189695101e+05
4.734719999999999800e+02 2.942518677143304958e+05
4.716000000000000227e+02 2.902578719381639967e+05
4.697280000000000086e+02 2.909279583420857671e+05
4.678550000000000182e+02 2.877371553500785376e+05
4.659820000000000277e+02 2.862584346259822487e+05
4.641080000000000041e+02 2.838288246816492756e+05
4.622339999999999804e+02 2.813562970930967713e+05
4.603589999999999804e+02 2.792948804600937292e+05
4.584839999999999804e+02 2.771365462707875995e+05
4.566089999999999804e+02 2.760742945251784404e+05
4.547330000000000041e+02 2.752461539549685549e+05
4.528570000000000277e+02 2.736020959164190572e+05
4.509800000000000182e+02 2.719761492292425246e+05
4.491019999999999754e+02 2.691853140254896134e+05
4.472250000000000227e+02 2.670925326216712710e+05
4.453460000000000036e+02 2.647068917411673465e+05
4.434680000000000177e+02 2.646283046605979325e+05
4.415889999999999986e+02 2.624698293276940822e+05
4.397090000000000032e+02 2.607954658746471105e+05
4.378290000000000077e+02 2.581851853055830870e+05
4.359490000000000123e+02 2.571839876205019827e+05
4.340679999999999836e+02 2.552709020357138943e+05
4.321859999999999786e+02 2.529009286835508246e+05
4.303050000000000068e+02 2.501380090872350556e+05
4.284220000000000255e+02 2.496102311605016002e+05
4.265389999999999873e+02 2.479785363824854721e+05
4.246560000000000059e+02 2.472799247531866713e+05
4.227730000000000246e+02 2.460673962726051977e+05
4.208890000000000100e+02 2.434459804661072849e+05
4.190040000000000191e+02 2.434956774662359967e+05
4.171190000000000282e+02 2.418144577918061696e+05
4.152330000000000041e+02 2.407473511008208734e+05
4.133469999999999800e+02 2.363683278237094346e+05
4.114610000000000127e+02 2.384103879604718531e+05
4.095740000000000123e+02 2.380375613018184376e+05
4.076870000000000118e+02 2.379328181455182203e+05
4.057989999999999782e+02 2.361011883708076784e+05
4.039110000000000014e+02 2.354106421869765327e+05
4.020219999999999914e+02 2.337602095618344028e+05
4.001329999999999814e+02 2.334138606161447533e+05
3.982429999999999950e+02 2.325376254063372617e+05
3.963530000000000086e+02 2.333854739646022499e+05
3.944630000000000223e+02 2.328404062909397471e+05
3.925720000000000027e+02 2.309724525747680455e+05
3.906800000000000068e+02 2.310456129491227039e+05
3.887880000000000109e+02 2.292828572689305583e+05
3.868960000000000150e+02 2.296651855341916671e+05
3.850029999999999859e+02 2.284866281118222978e+05
3.831100000000000136e+02 2.295481547236668412e+05
3.812160000000000082e+02 2.275757958254492551e+05
3.793220000000000027e+02 2.282735210502532427e+05
3.774270000000000209e+02 2.288173609426571929e+05
3.755319999999999823e+02 2.278622850469372061e+05
3.736370000000000005e+02 2.281322933630933403e+05
3.717400000000000091e+02 2.277724472469866159e+05
3.698439999999999941e+02 2.279566547981775948e+05
3.679470000000000027e+02 2.264099774170366290e+05
3.660489999999999782e+02 2.259914152370214579e+05
3.641519999999999868e+02 2.268419066798180284e+05
3.622529999999999859e+02 2.273615443131542124e+05
3.603539999999999850e+02 2.269252665142535698e+05
3.584549999999999841e+02 2.274420732831160713e+05
3.565550000000000068e+02 2.261789956537821563e+05
3.546549999999999727e+02 2.265460026813004515e+05
3.527540000000000191e+02 2.267361254888472904e+05
3.508530000000000086e+02 2.271863330423822626e+05
3.489510000000000218e+02 2.272676565542645112e+05
3.470489999999999782e+02 2.271700649013177317e+05
3.451469999999999914e+02 2.260105580835418659e+05
3.432440000000000282e+02 2.262981674471290025e+05
3.413399999999999750e+02 2.259578931259589153e+05
3.394359999999999786e+02 2.255957038184661360e+05
3.375319999999999823e+02 2.264535995246506645e+05
3.356270000000000095e+02 2.268986117693281558e+05
3.337219999999999800e+02 2.268557091170064814e+05
3.318159999999999741e+02 2.262979231818717381e+05
3.299089999999999918e+02 2.253672540980147896e+05
3.280029999999999859e+02 2.260056385923195048e+05
3.260950000000000273e+02 2.268561717756666476e+05
3.241879999999999882e+02 2.268037585371754831e+05
3.222799999999999727e+02 2.277334624182844418e+05
3.203709999999999809e+02 2.278402835532250174e+05
3.184619999999999891e+02 2.264901901489295997e+05
3.165520000000000209e+02 2.289732141775350028e+05
3.146419999999999959e+02 2.285523237564623996e+05
3.127320000000000277e+02 2.293805188857118483e+05
3.108210000000000264e+02 2.274498316718158021e+05
3.089089999999999918e+02 2.284442622492169030e+05
3.069970000000000141e+02 2.298957785561968049e+05
3.050849999999999795e+02 2.297693805927555077e+05
3.031720000000000255e+02 2.290601006447995605e+05
3.012590000000000146e+02 2.290479065161211474e+05
2.993450000000000273e+02 2.292978305823724950e+05
2.974300000000000068e+02 2.308628729782071896e+05
2.955160000000000196e+02 2.295949689073894406e+05
2.936000000000000227e+02 2.290222157663238177e+05
2.916850000000000023e+02 2.300915161586057220e+05
2.897690000000000055e+02 2.295839351499190088e+05
2.878519999999999754e+02 2.274064728750579816e+05
2.859350000000000023e+02 2.285960967787384870e+05
2.840169999999999959e+02 2.294688395960643247e+05
2.820989999999999895e+02 2.290536686818649177e+05
2.801800000000000068e+02 2.282086168612242327e+05
2.782610000000000241e+02 2.297576513990384410e+05
2.763419999999999845e+02 2.293007722953076009e+05
2.744220000000000255e+02 2.292640125101444428e+05
2.725009999999999764e+02 2.289423721786247916e+05
2.705799999999999841e+02 2.299718183856610267e+05
2.686589999999999918e+02 2.294313511312532064e+05
2.667370000000000232e+02 2.288800035557323426e+05
2.648149999999999977e+02 2.286867426088882785e+05
2.628919999999999959e+02 2.294336015212197963e+05
2.609689999999999941e+02 2.300815471523958549e+05
2.590450000000000159e+02 2.290316128231298935e+05
2.571209999999999809e+02 2.292657653029231296e+05
2.551959999999999980e+02 2.296940380027505744e+05
2.532709999999999866e+02 2.307563976018987596e+05
2.513449999999999989e+02 2.312868776016511838e+05
2.494190000000000111e+02 2.328974445910328068e+05
2.474919999999999902e+02 2.325991321616824716e+05
2.455649999999999977e+02 2.326279068123167381e+05
2.436370000000000005e+02 2.338308022249766509e+05
2.417090000000000032e+02 2.338217848080233671e+05
2.397800000000000011e+02 2.354018883339472231e+05
2.378509999999999991e+02 2.359330791207070579e+05
2.359219999999999970e+02 2.359053571683028713e+05
2.339919999999999902e+02 2.367047563849573198e+05
2.320610000000000070e+02 2.372792769064496970e+05
2.301299999999999955e+02 2.386748848698170623e+05
2.281990000000000123e+02 2.375275802750594739e+05
2.262669999999999959e+02 2.389263972115557990e+05
2.243340000000000032e+02 2.404863358152260771e+05
2.224010000000000105e+02 2.404873620419979852e+05
2.204679999999999893e+02 2.398954758918715816e+05
2.185339999999999918e+02 2.411507116355696344e+05
2.165999999999999943e+02 2.405460350930530112e+05
2.146649999999999920e+02 2.422784806257750897e+05
2.127299999999999898e+02 2.420540139630130725e+05
2.107940000000000111e+02 2.430936695569978037e+05
2.088569999999999993e+02 2.427534475439306698e+05
2.069209999999999923e+02 2.433262789739026048e+05
2.049830000000000041e+02 2.425252674761496601e+05
2.030449999999999875e+02 2.430003440553857072e+05
2.011069999999999993e+02 2.440595087116107752e+05
1.991680000000000064e+02 2.445617961696929997e+05
1.972290000000000134e+02 2.449311717956824286e+05
1.952899999999999920e+02 2.443356355895790330e+05
1.933489999999999895e+02 2.443172572740143223e+05
1.914089999999999918e+02 2.456419324014886806e+05
1.894670000000000130e+02 2.461327656925376796e+05
1.875260000000000105e+02 2.465656524266257184e+05
1.855840000000000032e+02 2.484636625540198002e+05
1.836409999999999911e+02 2.487877962113434332e+05
1.816980000000000075e+02 2.480440184007159551e+05
1.797539999999999907e+02 2.496403643022764591e+05
1.778100000000000023e+02 2.503097988270385540e+05
1.758650000000000091e+02 2.516583572463409218e+05
1.739199999999999875e+02 2.527680043800444691e+05
1.719749999999999943e+02 2.534357402281491959e+05
1.700289999999999964e+02 2.538016001988517819e+05
1.680819999999999936e+02 2.562225844290570822e+05
1.661349999999999909e+02 2.548176575562034559e+05
1.641870000000000118e+02 2.585698551254862396e+05
1.622390000000000043e+02 2.579201416830503731e+05
1.602909999999999968e+02 2.597975172288958565e+05
1.583420000000000130e+02 2.617940174452870851e+05
1.563919999999999959e+02 2.634506424693400622e+05
1.544420000000000073e+02 2.647213566644956591e+05
1.524919999999999902e+02 2.663071600307538756e+05
1.505409999999999968e+02 2.659940884333176655e+05
1.485889999999999986e+02 2.663721420094436617e+05
1.466370000000000005e+02 2.660142849396812380e+05
1.446850000000000023e+02 2.683935172240302782e+05
1.427319999999999993e+02 2.690408749108199263e+05
1.407779999999999916e+02 2.724953581374475034e+05
1.388240000000000123e+02 2.730129309013831080e+05
1.368700000000000045e+02 2.727905932026267401e+05
1.349149999999999920e+02 2.728773812728211633e+05
1.329590000000000032e+02 2.726292952495045611e+05
1.310029999999999859e+02 2.748152989468799788e+05
1.290469999999999970e+02 2.764373923649475328e+05
1.270900000000000034e+02 2.757646119188513258e+05
1.251320000000000050e+02 2.782039577462702291e+05
1.231740000000000066e+02 2.780653934779528645e+05
1.212159999999999940e+02 2.778379191138992901e+05
1.192570000000000050e+02 2.765015712529427256e+05
1.172980000000000018e+02 2.764273133881060639e+05
1.153379999999999939e+02 2.735931822101257276e+05
1.133769999999999953e+02 2.710921778568914160e+05
1.114159999999999968e+02 2.702232636836302117e+05
1.094549999999999983e+02 2.722584396903421148e+05
1.074929999999999950e+02 2.712957427517336910e+05
1.055300000000000011e+02 2.671691730058355606e+05
1.035669999999999931e+02 2.571006936239512288e+05
1.016039999999999992e+02 2.497843046060807246e+05
9.963989999999999725e+01 2.443970467169763579e+05
9.767539999999999623e+01 2.420548941351652611e+05
9.571040000000000703e+01 2.414818506310326920e+05
9.374490000000000123e+01 2.434359162736994331e+05
9.177899999999999636e+01 2.443380874079815985e+05
8.981250000000000000e+01 2.433223715470681491e+05
8.784550000000000125e+01 2.426817650404207816e+05
8.587800000000000011e+01 2.427782679572306224e+05
8.390999999999999659e+01 2.405698803667064058e+05
8.194150000000000489e+01 2.344386023380744446e+05
7.997239999999999327e+01 2.258674376925879915e+05
7.800289999999999679e+01 2.219133790001085144e+05
7.603289999999999793e+01 2.171834300773069845e+05
7.406239999999999668e+01 2.089325909934800584e+05
7.209130000000000393e+01 1.951018655884330219e+05
7.011979999999999791e+01 1.702532463951390237e+05
6.814770000000000039e+01 1.385247410285553487e+05
6.617520000000000380e+01 1.047783420031966816e+05
6.420210000000000150e+01 7.211835695255387691e+04
6.222849999999999682e+01 4.596148216629363742e+04
6.025439999999999685e+01 2.772311771383927407e+04
5.827980000000000160e+01 1.585136366463168815e+04
