1.838160000000000082e+03 1.713357377320062369e+02
1.836589999999999918e+03 4.960626179674291052e+02
1.835029999999999973e+03 6.159927747014444321e+02
1.833460000000000036e+03 9.520868509690044448e+02
1.831890000000000100e+03 7.548635143837891519e+02
1.830329999999999927e+03 -5.761504933662945405e+02
1.828759999999999991e+03 8.549933660806855187e+02
1.827190000000000055e+03 3.988198126748902723e+02
1.825619999999999891e+03 2.013288464163779281e+02
1.824049999999999955e+03 1.336520467304915655e+03
1.822490000000000009e+03 2.449931512840790674e+03
1.820920000000000073e+03 1.577490329761640169e+03
1.819349999999999909e+03 1.227731733829714358e+03
1.817779999999999973e+03 9.826557250448968261e+02
1.816210000000000036e+03 2.293262303407187574e+03
1.814640000000000100e+03 2.385551468916703016e+03
1.813069999999999936e+03 2.827523221573501360e+03
1.811490000000000009e+03 3.497626571711851284e+03
1.809920000000000073e+03 1.776961476924945600e+03
1.808349999999999909e+03 1.220978969285322819e+03
1.806779999999999973e+03 2.370679048792808317e+03
1.805210000000000036e+03 4.850617154474603012e+02
1.803630000000000109e+03 8.855658580168383196e+02
1.802059999999999945e+03 1.453116772279608995e+02
1.800490000000000009e+03 9.177400835861917585e+02
1.798910000000000082e+03 6.528388776816427708e+01
1.797339999999999918e+03 -3.939245533170760609e+02
1.795769999999999982e+03 -9.194504072552081198e+02
1.794190000000000055e+03 -9.888669414607575163e+02
1.792619999999999891e+03 1.079703571576392278e+02
1.791039999999999964e+03 -2.980870808446197771e+02
1.789470000000000027e+03 -8.968866296699270606e+02
1.787890000000000100e+03 -1.055584971468895674e+03
1.786309999999999945e+03 -1.639604782473703381e+03
1.784740000000000009e+03 -1.244360613333294168e+03
1.783160000000000082e+03 -7.330213281349278986e+02
1.781579999999999927e+03 1.209996487857541069e+03
1.780009999999999991e+03 9.752843749636667781e+02
1.778430000000000064e+03 3.446612871593097225e+02
1.776849999999999909e+03 4.817167301491135731e+02
1.775269999999999982e+03 1.685450703932845499e+03
1.773690000000000055e+03 1.287863208510680124e+03
1.772109999999999900e+03 2.768954243882501032e+03
1.770529999999999973e+03 3.292723810048366431e+03
1.768950000000000045e+03 1.696171907008218113e+03
1.767369999999999891e+03 3.400298534762172494e+03
1.765789999999999964e+03 2.401103693310113158e+03
1.764210000000000036e+03 2.906587382652098313e+03
1.762630000000000109e+03 2.450749602788011543e+03
1.761049999999999955e+03 2.641590353718143888e+03
1.759470000000000027e+03 2.247109635442146100e+03
1.757890000000000100e+03 1.815307447960251011e+03
1.756309999999999945e+03 1.821183791272458620e+03
1.754720000000000027e+03 1.118114571215235628e+03
1.753140000000000100e+03 7.053459415002143942e+02
1.751559999999999945e+03 5.812558425792376511e+02
1.749970000000000027e+03 5.312140635659452528e+02
1.748390000000000100e+03 1.134478991617739666e+03
1.746799999999999955e+03 -6.772118425304070115e+02
1.745220000000000027e+03 -1.309591887505841441e+03
1.743630000000000109e+03 2.490682232109829783e+02
1.742049999999999955e+03 -2.620956794791447464e+03
1.740460000000000036e+03 -3.024945739209535532e+03
1.738880000000000109e+03 -2.113615730239253026e+03
1.737289999999999964e+03 -3.347253729792195372e+03
1.735710000000000036e+03 -1.157568693849083502e+03
1.734119999999999891e+03 -2.588855748536996543e+03
1.732529999999999973e+03 -2.648468354538723361e+03
1.730940000000000055e+03 -3.183406511854147539e+03
1.729359999999999900e+03 -2.335013456580578350e+03
1.727769999999999982e+03 -3.496006690309150144e+02
1.726180000000000064e+03 -2.214513432795065455e+03
1.724589999999999918e+03 -1.871751747872855049e+03
1.723000000000000000e+03 -4.493156142644584179e+02
1.721410000000000082e+03 -1.102050319698173553e+02
1.719819999999999936e+03 -1.254420000988757238e+03
1.718230000000000018e+03 -8.439605213216273114e+02
1.716640000000000100e+03 -8.608265929681947455e+02
1.715049999999999955e+03 -2.100182159283431247e+02
1.713460000000000036e+03 -1.280535390202421695e+03
1.711869999999999891e+03 -5.923781157900812104e+02
1.710279999999999973e+03 -1.600546392691554502e+03
1.708680000000000064e+03 -6.147236022126162425e+02
1.707089999999999918e+03 -3.254502923402469605e+01
1.705500000000000000e+03 -1.402692007569246925e+03
1.703910000000000082e+03 -7.716453721828293055e+01
1.702309999999999945e+03 -3.654202334117144346e+00
1.700720000000000027e+03 -6.477988210308831185e+01
1.699119999999999891e+03 5.180731947985477746e+02
1.697529999999999973e+03 1.650294364909583237e+03
1.695940000000000055e+03 9.301899837068631314e+02
1.694339999999999918e+03 1.762058203819906339e+03
1.692740000000000009e+03 3.215967647567158565e+02
1.691150000000000091e+03 1.217511634627706371e+03
1.689549999999999955e+03 2.038392937582219020e+03
1.687960000000000036e+03 2.376654657333157957e+03
1.686359999999999900e+03 3.987878702305257320e+03
1.684759999999999991e+03 3.538773088101122994e+03
1.683170000000000073e+03 1.881054058925830759e+03
1.681569999999999936e+03 2.444291186739341356e+03
1.679970000000000027e+03 4.159198655376734678e+03
1.678369999999999891e+03 3.541776464838068932e+03
1.676769999999999982e+03 3.256024615123169497e+03
1.675170000000000073e+03 7.789431062321527861e+02
1.673569999999999936e+03 6.305319381650770083e+02
1.671970000000000027e+03 1.229791110921825748e+03
1.670369999999999891e+03 2.514720624502515420e+03
1.668769999999999982e+03 1.657320478906971402e+03
1.667170000000000073e+03 1.292590674135368317e+03
1.665569999999999936e+03 1.128531210187589750e+03
1.663970000000000027e+03 1.481142087063752115e+03
1.662369999999999891e+03 2.519423304763797205e+03
1.660769999999999982e+03 1.686374863287666813e+03
1.659160000000000082e+03 3.655249612882733345e+03
1.657559999999999945e+03 1.579539792684488930e+03
1.655960000000000036e+03 9.535003133101854473e+02
1.654349999999999909e+03 -9.056221689797821455e+02
1.652750000000000000e+03 1.526676972923742142e+03
1.651150000000000091e+03 8.166464556510909460e+02
1.649539999999999964e+03 -1.241473258523968980e+03
1.647940000000000055e+03 -1.531651545186759904e+02
1.646329999999999927e+03 1.190496189671684988e+02
1.644730000000000018e+03 7.069634425034746528e+01
1.643119999999999891e+03 -6.107543946029618382e+02
1.641509999999999991e+03 -1.151538926249428187e+03
1.639910000000000082e+03 -2.748852992343017831e+02
1.638299999999999955e+03 -2.633353432199219242e+02
1.636690000000000055e+03 -1.001191799986409023e+02
1.635089999999999918e+03 -1.715458651251508854e+03
1.633480000000000018e+03 -1.618908000369439833e+03
1.631869999999999891e+03 -8.696911422803532332e+02
1.630259999999999991e+03 -1.770808076984481886e+03
1.628650000000000091e+03 -1.689258804481825791e+03
1.627039999999999964e+03 -2.581043324772152118e+03
1.625430000000000064e+03 -2.449161637855751906e+03
1.623819999999999936e+03 -1.841613743732334115e+03
1.622210000000000036e+03 -3.304399642402189784e+03
1.620599999999999909e+03 -3.141519333865144290e+03
1.618990000000000009e+03 -4.939972818121314049e+03
1.617380000000000109e+03 -4.719760095170582645e+03
1.615769999999999982e+03 -5.344881165012891870e+03
1.614160000000000082e+03 -4.140336027648416348e+03
1.612549999999999955e+03 -5.153124683077039663e+03
1.610930000000000064e+03 -3.886056388325232547e+03
1.609319999999999936e+03 -5.394514702587272041e+03
1.607710000000000036e+03 -3.864306809642584994e+03
1.606089999999999918e+03 -4.755248199136054609e+03
1.604480000000000018e+03 -5.101709965024783742e+03
1.602859999999999900e+03 -6.244325172723329160e+03
1.601250000000000000e+03 -6.576456597445474472e+03
1.599630000000000109e+03 -6.241745623349212110e+03
1.598019999999999982e+03 -4.731546706904773600e+03
1.596400000000000091e+03 -4.619509551013528835e+03
1.594789999999999964e+03 -5.241980293402448297e+03
1.593170000000000073e+03 -6.199616955716395751e+03
1.591549999999999955e+03 -4.898591570194927044e+03
1.589940000000000055e+03 -5.320067837457754649e+03
1.588319999999999936e+03 -4.795716270141419955e+03
1.586700000000000045e+03 -5.533702654989901930e+03
1.585079999999999927e+03 -4.642026992003084160e+03
1.583470000000000027e+03 -5.357844650179962628e+03
1.581849999999999909e+03 -5.034842805398162454e+03
1.580230000000000018e+03 -4.905178912781295367e+03
1.578609999999999900e+03 -3.777852972329128534e+03
1.576990000000000009e+03 -3.548864984041894786e+03
1.575369999999999891e+03 -2.517214947919244878e+03
1.573750000000000000e+03 -3.151902863961528055e+03
1.572130000000000109e+03 -2.225928732168511488e+03
1.570500000000000000e+03 -1.788153872537193820e+03
1.568880000000000109e+03 -3.045857731198309921e+03
1.567259999999999991e+03 -2.282899542024009861e+03
1.565640000000000100e+03 -2.216279305014642887e+03
1.564019999999999982e+03 -1.463997020169859752e+03
1.562390000000000100e+03 -1.899924450986727607e+03
1.560769999999999982e+03 -1.242320156596018933e+03
1.559150000000000091e+03 1.989461856298148632e+02
1.557519999999999982e+03 8.279965409434516914e+02
1.555900000000000091e+03 3.551584892715269234e+03
1.554269999999999982e+03 3.044953072448668536e+03
1.552650000000000091e+03 -1.149136566233530175e+03
1.551019999999999982e+03 1.135494379196316004e+02
1.549400000000000091e+03 4.927818087833002210e+02
1.547769999999999982e+03 4.237856373561662622e+02
1.546140000000000100e+03 1.321447328637936153e+03
1.544519999999999982e+03 7.996616707584471442e+02
1.542890000000000100e+03 8.986411864599213004e+02
1.541259999999999991e+03 2.912785648703575134e+02
1.539640000000000100e+03 1.015474878247594461e+03
1.538009999999999991e+03 1.341430081077793147e+03
1.536380000000000109e+03 7.430431466168956831e+02
1.534750000000000000e+03 1.900314074864960276e+03
1.533119999999999891e+03 3.020242865822103340e+03
1.531490000000000009e+03 3.023829519488033839e+03
1.529859999999999900e+03 3.140074035863101017e+03
1.528230000000000018e+03 2.724976414947013836e+03
1.526599999999999909e+03 1.414536656739946920e+03
1.524970000000000027e+03 1.787754761241842061e+03
1.523339999999999918e+03 3.067630728452699259e+03
1.521710000000000036e+03 3.187164558372460306e+03
1.520069999999999936e+03 2.616429990721982904e+03
1.518440000000000055e+03 3.777277447057887912e+03
1.516809999999999945e+03 3.540782766102871392e+03
1.515180000000000064e+03 3.259945947856700514e+03
1.513539999999999964e+03 2.476832323155831546e+03
1.511910000000000082e+03 2.677309131325862836e+03
1.510269999999999982e+03 2.456504922160296701e+03
1.508640000000000100e+03 2.803295356746413745e+03
1.507000000000000000e+03 2.485800563116150443e+03
1.505369999999999891e+03 3.177904624118469656e+03
1.503730000000000018e+03 1.887719246023334563e+03
1.502099999999999909e+03 3.367136933441855945e+03
1.500460000000000036e+03 3.315260970882023685e+03
1.498819999999999936e+03 1.418038660150254145e+03
1.497190000000000055e+03 2.850425737692043185e+03
1.495549999999999955e+03 6.265128424955764785e+02
1.493910000000000082e+03 3.583253599127172492e+03
1.492269999999999982e+03 3.046480075868894346e+02
1.490640000000000100e+03 1.079660238959128037e+03
1.489000000000000000e+03 -1.001635937045910396e+03
1.487359999999999900e+03 -3.652784612227696925e+02
1.485720000000000027e+03 8.173266642825910822e+01
1.484079999999999927e+03 6.893974459075252526e+02
1.482440000000000055e+03 -2.622841227852622978e+02
1.480799999999999955e+03 5.236879603501292877e+02
1.479160000000000082e+03 1.693136953135253862e+02
1.477519999999999982e+03 5.659308210510062054e+01
1.475869999999999891e+03 -6.245705727161839604e+01
1.474230000000000018e+03 -1.323872478703036904e+03
1.472589999999999918e+03 -1.061634248306334484e+03
1.470950000000000045e+03 -1.724742366081627551e+03
1.469299999999999955e+03 -1.834188470418797806e+03
1.467660000000000082e+03 -2.674991396417026408e+03
1.466019999999999982e+03 -2.504140670587075874e+03
1.464369999999999891e+03 -2.324634279833757319e+03
1.462730000000000018e+03 -3.053478362226858735e+03
1.461079999999999927e+03 -3.451671016331936698e+03
1.459440000000000055e+03 -2.887209906947915442e+03
1.457789999999999964e+03 -3.554101605911506340e+03
1.456150000000000091e+03 -1.855335304750420619e+03
1.454500000000000000e+03 -1.400926048572408035e+03
1.452849999999999909e+03 -1.438673772017937154e+02
1.451210000000000036e+03 -1.320144344314699993e+03
1.449559999999999945e+03 -2.054784717802482191e+03
1.447910000000000082e+03 -1.481775676097837277e+03
1.446259999999999991e+03 -1.426117219200532418e+03
1.444609999999999900e+03 -1.488809347110625822e+03
1.442970000000000027e+03 2.131734974004793912e+02
1.441319999999999936e+03 8.557823246319312602e+02
1.439670000000000073e+03 1.304056705592665821e+01
1.438019999999999982e+03 9.429482246725820005e+02
1.436369999999999891e+03 4.995052974817226641e+02
1.434720000000000027e+03 -8.112882145165931433e+02
1.433059999999999945e+03 1.011529382910579443e+03
1.431410000000000082e+03 1.803257654095068574e+01
1.429759999999999991e+03 -8.548148146360181272e+02
1.428109999999999900e+03 7.049872093796730042e+02
1.426460000000000036e+03 -7.165613514121505432e+02
1.424799999999999955e+03 -5.125094394378829747e+02
1.423150000000000091e+03 2.402387053989805281e+02
1.421500000000000000e+03 1.195636265428562183e+03
1.419839999999999918e+03 1.811627911077579483e+03
1.418190000000000055e+03 1.206322176735789981e+03
1.416529999999999973e+03 1.029606265623471700e+03
1.414880000000000109e+03 1.025972369104274549e+02
1.413220000000000027e+03 2.911737690367153846e+02
1.411569999999999936e+03 2.006461445952474605e+03
1.409910000000000082e+03 8.663304213172523305e+02
1.408259999999999991e+03 7.439148038618150167e+02
1.406599999999999909e+03 1.187076222465315368e+03
1.404940000000000055e+03 1.419882793871161994e+03
1.403279999999999973e+03 2.966334518079529516e+03
1.401630000000000109e+03 1.470510187125066295e+03
1.399970000000000027e+03 2.087254354572098237e+03
1.398309999999999945e+03 2.071643674821534660e+03
1.396650000000000091e+03 1.747678147873375565e+03
1.394990000000000009e+03 1.668357773727737367e+03
1.393329999999999927e+03 2.299682552384561859e+03
1.391670000000000073e+03 2.463652483843732625e+03
1.390009999999999991e+03 2.619267568105366081e+03
1.388349999999999909e+03 3.211527805169520434e+03
1.386690000000000055e+03 2.156433195036021061e+03
1.385029999999999973e+03 1.553983737705042586e+03
1.383369999999999891e+03 2.399179433176526800e+03
1.381700000000000045e+03 1.738915837810956873e+03
1.380039999999999964e+03 2.547399701253627427e+03
1.378380000000000109e+03 2.888528717498702463e+03
1.376710000000000036e+03 2.500192017128341831e+03
1.375049999999999955e+03 8.366092013446032070e+02
1.373390000000000100e+03 8.886715383632690646e+02
1.371720000000000027e+03 1.371261732988059521e+03
1.370059999999999945e+03 1.596612237978028134e+03
1.368390000000000100e+03 1.630486312429187819e+03
1.366730000000000018e+03 1.769124985390226357e+03
1.365059999999999945e+03 1.344282939667871688e+03
1.363390000000000100e+03 6.050817586031625979e+02
1.361730000000000018e+03 7.876516147041693330e+02
1.360059999999999945e+03 7.317343134658876806e+02
1.358390000000000100e+03 1.284457876885309815e+03
1.356730000000000018e+03 1.178958916126226541e+03
1.355059999999999945e+03 1.037966359372134320e+03
1.353390000000000100e+03 -2.938533272437052801e+01
1.351720000000000027e+03 9.459038398369448259e+02
1.350049999999999955e+03 7.848338770559057593e+02
1.348380000000000109e+03 5.174047789325122721e+02
1.346710000000000036e+03 1.000616545466880780e+03
1.345039999999999964e+03 7.704691766589530744e+02
1.343369999999999891e+03 1.769626725087291561e+02
1.341700000000000045e+03 4.750970330160926096e+02
1.340029999999999973e+03 -2.212774181872373447e+01
1.338359999999999900e+03 4.102883480041055009e+02
1.336680000000000064e+03 -6.081711481150705367e+01
1.335009999999999991e+03 -1.212144618423189968e+01
1.333339999999999918e+03 6.712150871006306261e+02
1.331660000000000082e+03 -5.749763966632890515e+02
1.329990000000000009e+03 -1.058360284574038815e+03
1.328319999999999936e+03 -1.700103307827084791e+03
1.326640000000000100e+03 -1.210380812539398903e+03
1.324970000000000027e+03 -2.709844256988086272e+03
1.323289999999999964e+03 -8.578464967953623272e+02
1.321619999999999891e+03 -1.031030362439661985e+03
1.319940000000000055e+03 -1.951757337341987295e+03
1.318259999999999991e+03 -1.110847761485929368e+03
1.316589999999999918e+03 -1.335113334179215599e+03
1.314910000000000082e+03 -1.250928493418265134e+03
1.313230000000000018e+03 -4.991071018989314325e+02
1.311559999999999945e+03 -6.064543816411751322e+02
1.309880000000000109e+03 -2.653577252169488929e+02
1.308200000000000045e+03 1.069375481965718791e+03
1.306519999999999982e+03 6.174523990671150386e+01
1.304839999999999918e+03 8.657515486060001422e+02
1.303160000000000082e+03 -2.186055919364735018e+02
1.301480000000000018e+03 2.696738182794651948e+02
1.299799999999999955e+03 8.115897792537580244e+02
1.298119999999999891e+03 4.931422909863176756e+02
1.296440000000000055e+03 3.933313534771441482e+02
1.294759999999999991e+03 1.341569667263538577e+02
1.293069999999999936e+03 6.034005554820760153e+02
1.291390000000000100e+03 1.134497106859518681e+03
1.289710000000000036e+03 1.814230208995373687e+03
1.288029999999999973e+03 1.764599861889495514e+03
1.286339999999999918e+03 1.727378823859442491e+03
1.284660000000000082e+03 1.622019414881884586e+03
1.282980000000000018e+03 5.422965566626517102e+02
1.281289999999999964e+03 2.427976504476857372e+03
1.279609999999999900e+03 1.895524584385944763e+03
1.277920000000000073e+03 1.042471130674413871e+03
1.276240000000000009e+03 -8.970985128820757382e+01
1.274549999999999955e+03 1.996503293474612292e+03
1.272859999999999900e+03 2.285348649341787677e+03
1.271180000000000064e+03 3.345072992877365323e+03
1.269490000000000009e+03 3.228184947218804155e+03
1.267799999999999955e+03 3.084929112664598506e+03
1.266109999999999900e+03 3.710305489214690169e+03
1.264420000000000073e+03 3.450314076869050041e+03
1.262740000000000009e+03 3.128212520642933669e+03
1.261049999999999955e+03 2.645487706771644298e+03
1.259359999999999900e+03 4.306395104004710447e+03
1.257670000000000073e+03 3.958934712341986597e+03
1.255980000000000018e+03 3.788106531783676473e+03
1.254289999999999964e+03 2.666910562329692766e+03
1.252599999999999909e+03 2.474346803980006371e+03
1.250900000000000091e+03 3.343142377859883709e+03
1.249210000000000036e+03 3.061840865453210426e+03
1.247519999999999982e+03 2.704171564150892664e+03
1.245829999999999927e+03 2.644134473952814005e+03
1.244140000000000100e+03 3.184729594859061763e+03
1.242440000000000055e+03 4.476673153789364733e+03
1.240750000000000000e+03 4.292530520638654707e+03
1.239059999999999945e+03 5.220020098592241993e+03
1.237359999999999900e+03 5.977851572895597201e+03
1.235670000000000073e+03 4.940603396792139392e+03
1.233970000000000027e+03 5.571692751629860140e+03
1.232279999999999973e+03 5.278706821469415445e+03
1.230579999999999927e+03 5.838054056841472629e+03
1.228880000000000109e+03 5.168029137909237761e+03
1.227190000000000055e+03 5.438935488530434668e+03
1.225490000000000009e+03 5.206168450132594444e+03
1.223789999999999964e+03 4.990029257430462167e+03
1.222089999999999918e+03 5.598517910423979629e+03
1.220400000000000091e+03 6.290946576665533939e+03
1.218700000000000045e+03 5.627693110193416942e+03
1.217000000000000000e+03 6.341067489417036995e+03
1.215299999999999955e+03 6.711069714336394100e+03
1.213599999999999909e+03 8.181699784951400943e+03
1.211900000000000091e+03 7.313957701262086630e+03
1.210200000000000045e+03 8.359843463268509367e+03
1.208500000000000000e+03 8.274357070970640052e+03
1.206799999999999955e+03 8.356498524368449580e+03
1.205099999999999909e+03 9.484267823461967055e+03
1.203390000000000100e+03 9.897330909269221593e+03
1.201690000000000055e+03 9.701353710611118004e+03
1.199990000000000009e+03 1.052300435764880967e+04
1.198289999999999964e+03 1.123128285038220929e+04
1.196579999999999927e+03 1.185384636038012104e+04
1.194880000000000109e+03 1.322337835536184139e+04
1.193170000000000073e+03 1.349319097644495196e+04
1.191470000000000027e+03 1.419697647367519676e+04
1.189759999999999991e+03 1.646103820584347704e+04
1.188059999999999945e+03 1.632507720532215899e+04
1.186349999999999909e+03 1.755238804857563809e+04
1.184650000000000091e+03 1.734868055030269898e+04
1.182940000000000055e+03 1.904224050464137690e+04
1.181230000000000018e+03 1.902742391351255355e+04
1.179529999999999973e+03 2.012859557404078078e+04
1.177819999999999936e+03 2.126702809399715625e+04
1.176109999999999900e+03 2.297408406848591403e+04
1.174400000000000091e+03 2.298276349750708323e+04
1.172690000000000055e+03 2.258606638106080936e+04
1.170980000000000018e+03 2.427599271914694691e+04
1.169269999999999982e+03 2.468854251176555408e+04
1.167559999999999945e+03 2.494871575891663088e+04
1.165849999999999909e+03 2.665551246060014819e+04
1.164140000000000100e+03 2.767493261681607692e+04
1.162430000000000064e+03 2.958797622756450437e+04
1.160720000000000027e+03 2.897064329284540145e+04
1.159009999999999991e+03 3.146593381265876815e+04
1.157289999999999964e+03 3.221545436361624161e+04
1.155579999999999927e+03 3.276698959047422977e+04
1.153869999999999891e+03 3.431714827186468756e+04
1.152160000000000082e+03 3.604793040778752766e+04
1.150440000000000055e+03 3.629593375389615539e+04
1.148730000000000018e+03 3.644596059686370427e+04
1.147009999999999991e+03 3.733520423309906619e+04
1.145299999999999955e+03 3.909847578311126563e+04
1.143579999999999927e+03 3.949195970947341993e+04
1.141869999999999891e+03 4.085747596653021174e+04
1.140150000000000091e+03 4.212520018301910022e+04
1.138430000000000064e+03 4.299154343712262926e+04
1.136720000000000027e+03 4.356892565373622347e+04
1.135000000000000000e+03 4.610350919796654489e+04
1.133279999999999973e+03 4.494771177981141955e+04
1.131559999999999945e+03 4.669953339927087654e+04
1.129839999999999918e+03 4.769797405634494498e+04
1.128130000000000109e+03 4.911946473753964528e+04
1.126410000000000082e+03 5.019414568474047701e+04
1.124690000000000055e+03 5.170044566955589107e+04
1.122970000000000027e+03 5.280336469198588748e+04
1.121250000000000000e+03 5.385290275203052443e+04
1.119519999999999982e+03 5.493361778869558475e+04
1.117799999999999955e+03 5.601539170907175867e+04
1.116079999999999927e+03 5.820778466706251493e+04
1.114359999999999900e+03 5.796579666266788263e+04
1.112640000000000100e+03 5.951842769588777446e+04
1.110910000000000082e+03 6.191722461836296134e+04
1.109190000000000055e+03 6.198809151191450655e+04
1.107470000000000027e+03 6.394357744308060501e+04
1.105740000000000009e+03 6.434822260593189276e+04
1.104019999999999982e+03 6.588594439742958639e+04
1.102289999999999964e+03 6.728582097793999128e+04
1.100569999999999936e+03 6.786677862976928009e+04
1.098839999999999918e+03 6.797488662793877302e+04
1.097119999999999891e+03 7.012708014009962790e+04
1.095390000000000100e+03 7.136041955592815066e+04
1.093660000000000082e+03 7.221937356669883593e+04
1.091940000000000055e+03 7.370241976190829882e+04
1.090210000000000036e+03 7.198460519033807213e+04
1.088480000000000018e+03 7.646640521370994975e+04
1.086750000000000000e+03 7.796481983202390256e+04
1.085019999999999982e+03 7.762084904527995968e+04
1.083299999999999955e+03 7.968398156897199806e+04
1.081569999999999936e+03 8.102724219988717232e+04
1.079839999999999918e+03 8.141911742574442178e+04
1.078109999999999900e+03 8.449760724654380465e+04
1.076369999999999891e+03 8.330221403569175163e+04
1.074640000000000100e+03 8.633193081860034727e+04
1.072910000000000082e+03 8.819226219645107631e+04
1.071180000000000064e+03 8.805620816924393876e+04
1.069450000000000045e+03 9.045676873697887640e+04
1.067720000000000027e+03 9.214394389965594746e+04
1.065980000000000018e+03 9.321222265115485061e+04
1.064250000000000000e+03 9.405962477594119264e+04
1.062509999999999991e+03 9.556412602112232707e+04
1.060779999999999973e+03 9.761475510801794007e+04
1.059049999999999955e+03 9.942099878985568648e+04
1.057309999999999945e+03 9.978933489588613156e+04
1.055579999999999927e+03 1.010408055398332071e+05
1.053839999999999918e+03 1.028903641395458253e+05
1.052099999999999909e+03 1.052625328657734790e+05
1.050369999999999891e+03 1.059508428389970213e+05
1.048630000000000109e+03 1.071752340589067899e+05
1.046890000000000100e+03 1.091332354053315939e+05
1.045150000000000091e+03 1.104868468782713753e+05
1.043420000000000073e+03 1.120886085479385802e+05
1.041680000000000064e+03 1.131834425145605637e+05
1.039940000000000055e+03 1.149438866076975246e+05
1.038200000000000045e+03 1.157519408273494628e+05
1.036460000000000036e+03 1.186676051735163783e+05
1.034720000000000027e+03 1.181888796461983002e+05
1.032980000000000018e+03 1.189417642453951994e+05
1.031240000000000009e+03 1.199692589711070759e+05
1.029500000000000000e+03 1.221753638233339298e+05
1.027750000000000000e+03 1.222155185659934650e+05
1.026009999999999991e+03 1.244518414305980841e+05
1.024269999999999982e+03 1.237377744217176805e+05
1.022529999999999973e+03 1.251763175393522833e+05
1.020779999999999973e+03 1.265399015719333547e+05
1.019039999999999964e+03 1.288636627019456937e+05
1.017299999999999955e+03 1.298400339584730100e+05
1.015549999999999955e+03 1.292714393951128586e+05
1.013809999999999945e+03 1.315550286640179693e+05
1.012059999999999945e+03 1.320506476188538363e+05
1.010320000000000050e+03 1.329254549001366540e+05
1.008570000000000050e+03 1.331242873731685395e+05
1.006820000000000050e+03 1.345487254785336845e+05
1.005080000000000041e+03 1.365643586580570554e+05
1.003330000000000041e+03 1.355650102816182189e+05
1.001580000000000041e+03 1.354682675375126419e+05
9.998319999999999936e+02 1.366256496646777086e+05
9.980839999999999463e+02 1.369026383250727667e+05
9.963350000000000364e+02 1.358944734491026320e+05
9.945850000000000364e+02 1.364331543610947847e+05
9.928350000000000364e+02 1.378914409054201969e+05
9.910850000000000364e+02 1.370563330820788397e+05
9.893350000000000364e+02 1.362098308910707419e+05
9.875839999999999463e+02 1.376231731359072437e+05
9.858319999999999936e+02 1.373253591401430895e+05
9.840810000000000173e+02 1.375349115224949783e+05
9.823279999999999745e+02 1.373745453398338577e+05
9.805760000000000218e+02 1.373995455352887511e+05
9.788229999999999791e+02 1.357563881364800618e+05
9.770689999999999600e+02 1.354980724661899440e+05
9.753160000000000309e+02 1.343621233997551026e+05
9.735620000000000118e+02 1.332340156102315523e+05
9.718070000000000164e+02 1.335247484200151521e+05
9.700520000000000209e+02 1.329250846053831046e+05
9.682970000000000255e+02 1.321510241663354682e+05
9.665410000000000537e+02 1.299258031966108829e+05
9.647849999999999682e+02 1.293251851503482903e+05
9.630280000000000200e+02 1.277834056689063727e+05
9.612709999999999582e+02 1.269372286585464899e+05
9.595140000000000100e+02 1.270046541192686418e+05
9.577559999999999718e+02 1.262499170135396416e+05
9.559980000000000473e+02 1.255337819262551493e+05
9.542390000000000327e+02 1.244774833669869986e+05
9.524800000000000182e+02 1.227757863732683181e+05
9.507210000000000036e+02 1.222546909450991079e+05
9.489610000000000127e+02 1.206944309123866842e+05
9.472000000000000455e+02 1.190150055952089315e+05
9.454400000000000546e+02 1.166129475606495980e+05
9.436789999999999736e+02 1.154197237882147892e+05
9.419170000000000300e+02 1.138473335975962109e+05
9.401549999999999727e+02 1.128655436122966930e+05
9.383930000000000291e+02 1.110633538323162065e+05
9.366309999999999718e+02 1.094177642576547805e+05
9.348680000000000518e+02 1.078950069034202024e+05
9.331040000000000418e+02 1.061050810885314131e+05
9.313400000000000318e+02 1.051667545708536636e+05
9.295760000000000218e+02 1.018800273503869830e+05
9.278110000000000355e+02 1.003221305334872159e+05
9.260460000000000491e+02 9.958683255935821217e+04
9.242809999999999491e+02 9.769613342799988459e+04
9.225149999999999864e+02 9.504826356378576020e+04
9.207480000000000473e+02 9.300922228447583620e+04
9.189819999999999709e+02 9.105454896899408777e+04
9.172150000000000318e+02 8.878070378346112557e+04
9.154470000000000027e+02 8.616568604525068076e+04
9.136789999999999736e+02 8.373326578494472778e+04
9.119109999999999445e+02 8.261844300254323753e+04
9.101420000000000528e+02 8.086744652910987497e+04
9.083730000000000473e+02 7.778104707811051048e+04
9.066029999999999518e+02 7.622347302488074638e+04
9.048329999999999700e+02 7.346949553835688857e+04
9.030629999999999882e+02 7.234211461853890796e+04
9.012920000000000300e+02 7.076355795684846817e+04
8.995209999999999582e+02 6.842659740587836131e+04
8.977490000000000236e+02 6.579046020080699236e+04
8.959769999999999754e+02 6.398591865021281410e+04
8.942050000000000409e+02 6.194997275409573922e+04
8.924320000000000164e+02 5.877584906294767279e+04
8.906589999999999918e+02 5.742032056977605680e+04
8.888849999999999909e+02 5.550161336831445806e+04
8.871109999999999900e+02 5.382150090807108791e+04
8.853360000000000127e+02 5.206220882576372242e+04
8.835620000000000118e+02 5.036928561951327720e+04
8.817859999999999445e+02 4.860540751375627588e+04
8.800109999999999673e+02 4.713689828405622393e+04
8.782340000000000373e+02 4.595643278302956605e+04
8.764579999999999700e+02 4.476533615805985755e+04
8.746810000000000400e+02 4.264905762465947191e+04
8.729039999999999964e+02 4.208437246065732324e+04
8.711259999999999764e+02 4.101950447290518787e+04
8.693479999999999563e+02 3.979722939676287933e+04
8.675689999999999600e+02 3.848677058103616582e+04
8.657899999999999636e+02 3.884290421887327102e+04
8.640109999999999673e+02 3.693563031027419493e+04
8.622309999999999945e+02 3.549317151665387792e+04
8.604510000000000218e+02 3.578730471829388989e+04
8.586699999999999591e+02 3.469525211804805440e+04
8.568890000000000100e+02 3.421979105450146017e+04
8.551069999999999709e+02 3.382914327168939053e+04
8.533250000000000455e+02 3.329908656675793463e+04
8.515430000000000064e+02 3.287662093970709248e+04
8.497599999999999909e+02 3.176896744602231774e+04
8.479769999999999754e+02 3.184390457114198944e+04
8.461939999999999600e+02 3.276743231506613665e+04
8.444099999999999682e+02 3.289477104434400098e+04
8.426259999999999764e+02 3.232569993309260462e+04
8.408410000000000082e+02 3.293943888827000046e+04
8.390560000000000400e+02 3.299476754332688870e+04
8.372699999999999818e+02 3.319490534537253552e+04
8.354840000000000373e+02 3.359663238744885894e+04
8.336970000000000027e+02 3.462016765655879863e+04
8.319109999999999445e+02 3.442607294870779151e+04
8.301230000000000473e+02 3.552200453455175739e+04
8.283360000000000127e+02 3.772130614343480556e+04
8.265480000000000018e+02 3.765441459864607896e+04
8.247590000000000146e+02 3.854032920944661601e+04
8.229700000000000273e+02 3.998083167918620165e+04
8.211810000000000400e+02 4.181592200786480680e+04
8.193909999999999627e+02 4.196681734025717014e+04
8.176009999999999991e+02 4.283630007070957799e+04
8.158099999999999454e+02 4.350858688286022516e+04
8.140190000000000055e+02 4.477946063193440204e+04
8.122279999999999518e+02 4.648092131793213775e+04
8.104360000000000355e+02 4.913718493246479193e+04
8.086440000000000055e+02 5.012303502252697945e+04
8.068509999999999991e+02 5.197668711807840737e+04
8.050579999999999927e+02 5.251092522750765784e+04
8.032649999999999864e+02 5.479574935081478907e+04
8.014710000000000036e+02 5.623037432516019908e+04
7.996760000000000446e+02 5.791579945748699538e+04
7.978819999999999482e+02 5.846659530475080828e+04
7.960860000000000127e+02 5.951140499154650024e+04
7.942910000000000537e+02 6.129058539327917970e+04
7.924950000000000045e+02 6.294756456610684108e+04
7.906979999999999791e+02 6.329334181619985611e+04
7.889020000000000437e+02 6.436249001250637230e+04
7.871040000000000418e+02 6.578164881047359086e+04
7.853070000000000164e+02 6.558517855465432513e+04
7.835090000000000146e+02 6.667150498766871169e+04
7.817100000000000364e+02 6.778962741491454653e+04
7.799109999999999445e+02 6.832933308072006912e+04
7.781119999999999663e+02 6.916962198508522124e+04
7.763120000000000118e+02 7.115370572536764666e+04
7.745119999999999436e+02 7.145537224075532868e+04
7.727110000000000127e+02 7.164583266489382368e+04
7.709099999999999682e+02 7.206587540042557521e+04
7.691090000000000373e+02 7.243050044735052506e+04
7.673070000000000164e+02 7.344691824342444306e+04
7.655040000000000191e+02 7.397112809249982820e+04
7.637019999999999982e+02 7.383670935137197375e+04
7.618990000000000009e+02 7.403008219901850680e+04
7.600950000000000273e+02 7.549824593890566030e+04
7.582910000000000537e+02 7.680799059750478773e+04
7.564869999999999663e+02 7.701131617481591820e+04
7.546820000000000164e+02 7.711743148283413029e+04
7.528769999999999527e+02 7.864512724482218619e+04
7.510710000000000264e+02 7.835861180777542177e+04
7.492649999999999864e+02 7.858467635969877301e+04
7.474579999999999700e+02 8.019252878233033698e+04
7.456509999999999536e+02 7.963096072867473413e+04
7.438440000000000509e+02 8.090697219873193535e+04
7.420359999999999445e+02 8.147177037603227654e+04
7.402279999999999518e+02 8.135414761153061409e+04
7.384189999999999827e+02 8.221331062298492179e+04
7.366100000000000136e+02 8.265905222686486377e+04
7.348010000000000446e+02 8.297537242317044002e+04
7.329909999999999854e+02 8.336847723067918560e+04
7.311810000000000400e+02 8.460116016458361992e+04
7.293700000000000045e+02 8.482262677737386548e+04
7.275589999999999691e+02 8.506667105027238722e+04
7.257469999999999573e+02 8.573949806922422431e+04
7.239349999999999454e+02 8.614390228173935611e+04
7.221230000000000473e+02 8.684388368781775353e+04
7.203099999999999454e+02 8.756664667326508788e+04
7.184969999999999573e+02 8.925598638547313749e+04
7.166829999999999927e+02 8.944010674318743986e+04
7.148690000000000282e+02 8.997080336060239642e+04
7.130539999999999736e+02 9.040127968914590019e+04
7.112390000000000327e+02 9.040233181007239909e+04
7.094239999999999782e+02 9.117795972338195133e+04
7.076079999999999472e+02 9.236236617920399294e+04
7.057920000000000300e+02 9.340934795983385993e+04
7.039750000000000227e+02 9.301510734756832244e+04
7.021580000000000155e+02 9.400044159227788623e+04
7.003400000000000318e+02 9.291355250816904299e+04
6.985220000000000482e+02 9.433323781294505170e+04
6.967039999999999509e+02 9.632849750660588325e+04
6.948849999999999909e+02 9.610853270090065780e+04
6.930660000000000309e+02 9.681014181573245151e+04
6.912459999999999809e+02 9.759052549424504105e+04
6.894260000000000446e+02 9.731448262468923349e+04
6.876059999999999945e+02 9.859201320706510160e+04
6.857849999999999682e+02 9.984731718128637294e+04
6.839629999999999654e+02 9.896039384386556048e+04
6.821420000000000528e+02 1.001098435497284227e+05
6.803189999999999600e+02 1.003462647108687088e+05
6.784969999999999573e+02 1.009200589152926696e+05
6.766730000000000018e+02 1.015498231668599765e+05
6.748500000000000227e+02 1.021239604617110163e+05
6.730259999999999536e+02 1.035678680980299250e+05
6.712019999999999982e+02 1.038313473092835193e+05
6.693769999999999527e+02 1.047395959224763355e+05
6.675520000000000209e+02 1.054374156407107366e+05
6.657259999999999991e+02 1.061610038208406331e+05
6.638999999999999773e+02 1.074021626358614885e+05
6.620729999999999791e+02 1.084950889722189459e+05
6.602459999999999809e+02 1.103595854730591964e+05
6.584189999999999827e+02 1.118536521383822110e+05
6.565910000000000082e+02 1.122544851486994303e+05
6.547630000000000337e+02 1.138958878528336791e+05
6.529339999999999691e+02 1.142240559603731526e+05
6.511050000000000182e+02 1.165217932908063522e+05
6.492749999999999773e+02 1.176322950825406297e+05
6.474450000000000500e+02 1.194873656259878335e+05
6.456150000000000091e+02 1.228390049211479491e+05
6.437839999999999918e+02 1.237134074993351533e+05
6.419529999999999745e+02 1.248443783577968861e+05
6.401209999999999809e+02 1.280991115561513870e+05
6.382889999999999873e+02 1.296714125630845083e+05
6.364560000000000173e+02 1.328854749662610120e+05
6.346230000000000473e+02 1.344711047060626443e+05
6.327899999999999636e+02 1.350813017824894632e+05
6.309560000000000173e+02 1.390552590749540541e+05
6.291219999999999573e+02 1.404847832318327855e+05
6.272870000000000346e+02 1.442500666600696859e+05
6.254519999999999982e+02 1.472609164802521700e+05
6.236159999999999854e+02 1.497335246265981987e+05
6.217799999999999727e+02 1.521546986921636853e+05
6.199439999999999600e+02 1.547304386769486300e+05
6.181069999999999709e+02 1.576119358057599165e+05
6.162690000000000055e+02 1.612191893689288700e+05
6.144320000000000164e+02 1.655328171536555456e+05
6.125929999999999609e+02 1.673133914142506546e+05
6.107549999999999955e+02 1.727263398964034277e+05
6.089160000000000537e+02 1.759190433928039856e+05
6.070760000000000218e+02 1.800445011930110632e+05
6.052359999999999900e+02 1.826305230189576978e+05
6.033959999999999582e+02 1.860851088706438895e+05
6.015549999999999500e+02 1.906394478414239129e+05
5.997140000000000555e+02 1.943913503639296687e+05
5.978719999999999573e+02 1.996920050572440377e+05
5.960299999999999727e+02 2.025692228280127747e+05
5.941870000000000118e+02 2.073781918207897397e+05
5.923440000000000509e+02 2.107487234164921683e+05
5.905009999999999764e+02 2.139208176151200023e+05
5.886570000000000391e+02 2.170196618491118425e+05
5.868120000000000118e+02 2.191502554060948605e+05
5.849679999999999609e+02 2.239012236589069653e+05
5.831219999999999573e+02 2.260121274793456250e+05
5.812770000000000437e+02 2.281364059956133424e+05
5.794310000000000400e+02 2.322394324093538453e+05
5.775839999999999463e+02 2.305362060074216279e+05
5.757369999999999663e+02 2.352885403077236260e+05
5.738899999999999864e+02 2.372864353102598106e+05
5.720420000000000300e+02 2.388890763079035387e+05
5.701939999999999600e+02 2.402972775319648499e+05
5.683450000000000273e+02 2.410752237992427836e+05
5.664959999999999809e+02 2.426197298168641282e+05
5.646459999999999582e+02 2.433169799252960947e+05
5.627960000000000491e+02 2.447007893077397021e+05
5.609460000000000264e+02 2.465871579641948920e+05
5.590950000000000273e+02 2.488782695203094627e+05
5.572430000000000518e+02 2.494841232610062580e+05
5.553909999999999627e+02 2.525715353222785634e+05
5.535389999999999873e+02 2.538045057041262917e+05
5.516870000000000118e+02 2.559190344065494719e+05
5.498329999999999700e+02 2.571634862955792341e+05
5.479800000000000182e+02 2.601043133565122844e+05
5.461259999999999764e+02 2.632478802165056113e+05
5.442709999999999582e+02 2.659771861593232024e+05
5.424160000000000537e+02 2.683470489906303701e+05
5.405610000000000355e+02 2.704934687104271725e+05
5.387050000000000409e+02 2.741376263186775614e+05
5.368490000000000464e+02 2.770933403375406051e+05
5.349919999999999618e+02 2.819167912888455903e+05
5.331349999999999909e+02 2.844227981726285652e+05
5.312780000000000200e+02 2.877893609888895880e+05
5.294199999999999591e+02 2.900546595419341465e+05
5.275610000000000355e+02 2.943166931139809894e+05
5.257019999999999982e+02 2.972402816614640178e+05
5.238429999999999609e+02 3.004254251843833481e+05
5.219829999999999472e+02 3.027813025293587707e+05
5.201230000000000473e+02 3.048147343708631815e+05
5.182619999999999436e+02 3.060198990763517213e+05
5.164009999999999536e+02 3.076656177992045414e+05
5.145399999999999636e+02 3.100598905394215835e+05
5.126779999999999973e+02 3.109338949453889509e+05
5.108149999999999977e+02 3.106076302977799787e+05
5.089519999999999982e+02 3.102689187084331061e+05
5.070889999999999986e+02 3.100897601773482747e+05
5.052250000000000227e+02 3.110473313931656303e+05
5.033609999999999900e+02 3.084824551873076125e+05
5.014959999999999809e+02 3.094363077682193252e+05
4.996309999999999718e+02 3.079457124472607975e+05
4.977649999999999864e+02 3.084618449524245807e+05
4.958990000000000009e+02 3.077325290752656292e+05
4.940330000000000155e+02 3.066197648157838848e+05
4.921659999999999968e+02 3.046437271809712984e+05
4.902989999999999782e+02 3.040512406831258559e+05
4.884309999999999832e+02 3.029574798482719925e+05
4.865629999999999882e+02 3.017712696694176993e+05
4.846940000000000168e+02 3.012357841913622105e+05
4.828249999999999886e+02 2.999148488880812074e+05
4.809549999999999841e+02 2.991626373228911543e+05
4.790849999999999795e+02 2.980369754509929335e+05
4.772139999999999986e+02 2.956290363539627870e+05
4.753430000000000177e+02 2.931006464684841922e+05
4.734719999999999800e+02 2.920118057945572073e+05
4.716000000000000227e+02 2.894286866908257362e+05
4.697280000000000086e+02 2.893301163166480837e+05
4.678550000000000182e+02 2.853452665484129684e+05
4.659820000000000277e+02 2.843189650274763117e+05
4.641080000000000041e+02 2.818953831477139611e+05
4.622339999999999804e+02 2.808003490327371983e+05
4.603589999999999804e+02 2.772510335936514894e+05
4.584839999999999804e+02 2.752392654365809867e+05
4.566089999999999804e+02 2.746930445615256904e+05
4.547330000000000041e+02 2.728405411551134312e+05
4.528570000000000277e+02 2.712435845476884861e+05
4.509800000000000182e+02 2.689473444425931084e+05
4.491019999999999754e+02 2.677028201147059444e+05
4.472250000000000227e+02 2.641046723993069027e+05
4.453460000000000036e+02 2.629444089554076781e+05
4.434680000000000177e+02 2.623075221239965758e+05
4.415889999999999986e+02 2.590843496187782148e+05
4.397090000000000032e+02 2.570158907138585346e+05
4.378290000000000077e+02 2.557159766732388234e+05
4.359490000000000123e+02 2.541846074969190522e+05
4.340679999999999836e+02 2.516919507104306831e+05
4.321859999999999786e+02 2.497600055871070072e+05
4.303050000000000068e+02 2.461124373183649732e+05
4.284220000000000255e+02 2.467787470266927849e+05
4.265389999999999873e+02 2.437526001456008526e+05
4.246560000000000059e+02 2.437749966750891763e+05
4.227730000000000246e+02 2.418279366151577851e+05
4.208890000000000100e+02 2.398295857942371513e+05
4.190040000000000191e+02 2.388979434845016804e+05
4.171190000000000282e+02 2.374288436149122717e+05
4.152330000000000041e+02 2.366814512855587236e+05
4.133469999999999800e+02 2.321366009107478021e+05
4.114610000000000127e+02 2.337242924904795073e+05
4.095740000000000123e+02 2.329386903961165808e+05
4.076870000000000118e+02 2.335286297704353346e+05
4.057989999999999782e+02 2.319922744986800244e+05
4.039110000000000014e+02 2.311774602094878210e+05
4.020219999999999914e+02 2.278513503017269541e+05
4.001329999999999814e+02 2.277197808901531971e+05
3.982429999999999950e+02 2.281059148870010977e+05
3.963530000000000086e+02 2.276485888934024842e+05
3.944630000000000223e+02 2.272918029093574150e+05
3.925720000000000027e+02 2.261087191168280260e+05
3.906800000000000068e+02 2.246283367852844822e+05
3.887880000000000109e+02 2.248204934892545862e+05
3.868960000000000150e+02 2.241771892287383380e+05
3.850029999999999859e+02 2.230015852110142587e+05
3.831100000000000136e+02 2.233265197413975839e+05
3.812160000000000082e+02 2.232701535395030514e+05
3.793220000000000027e+02 2.231683253980521113e+05
3.774270000000000209e+02 2.228521955487381783e+05
3.755319999999999823e+02 2.220586032719465438e+05
3.736370000000000005e+02 2.223195485676772078e+05
3.717400000000000091e+02 2.214723504347802373e+05
3.698439999999999941e+02 2.226925296427122084e+05
3.679470000000000027e+02 2.200994049459118105e+05
3.660489999999999782e+02 2.209739756115312630e+05
3.641519999999999868e+02 2.204149238622622215e+05
3.622529999999999859e+02 2.214897252644091786e+05
3.603539999999999850e+02 2.205890622848176281e+05
3.584549999999999841e+02 2.205289349234875408e+05
3.565550000000000068e+02 2.205955007243598229e+05
3.546549999999999727e+02 2.211666016542845755e+05
3.527540000000000191e+02 2.210163947677360266e+05
3.508530000000000086e+02 2.204177225207732699e+05
3.489510000000000218e+02 2.213077414781464613e+05
3.470489999999999782e+02 2.204552945853812853e+05
3.451469999999999914e+02 2.207273818424777710e+05
3.432440000000000282e+02 2.203061590792778297e+05
3.413399999999999750e+02 2.199006255606158229e+05
3.394359999999999786e+02 2.195366252115945099e+05
3.375319999999999823e+02 2.189401580322138616e+05
3.356270000000000095e+02 2.199703788714510447e+05
3.337219999999999800e+02 2.188711323898321425e+05
3.318159999999999741e+02 2.179615729455799155e+05
3.299089999999999918e+02 2.179646998023696942e+05
3.280029999999999859e+02 2.183442044894550054e+05
3.260950000000000273e+02 2.180175486080822593e+05
3.241879999999999882e+02 2.183892705570050166e+05
3.222799999999999727e+02 2.185766773335478210e+05
3.203709999999999809e+02 2.194977682006133255e+05
3.184619999999999891e+02 2.183123897822600557e+05
3.165520000000000209e+02 2.201186944711179822e+05
3.146419999999999959e+02 2.194425293827726273e+05
3.127320000000000277e+02 2.196318945172239910e+05
3.108210000000000264e+02 2.184329415291032929e+05
3.089089999999999918e+02 2.195376696801543003e+05
3.069970000000000141e+02 2.200069270696602762e+05
3.050849999999999795e+02 2.200237136976212787e+05
3.031720000000000255e+02 2.196641802336829714e+05
3.012590000000000146e+02 2.189511755156425061e+05
2.993450000000000273e+02 2.186658497203308507e+05
2.974300000000000068e+02 2.198792021083327709e+05
2.955160000000000196e+02 2.183779325727156538e+05
2.936000000000000227e+02 2.189764901643692574e+05
2.916850000000000023e+02 2.192474258324037946e+05
2.897690000000000055e+02 2.185270382041488192e+05
2.878519999999999754e+02 2.160103265394164482e+05
2.859350000000000023e+02 2.175691416477777821e+05
2.840169999999999959e+02 2.173536317322294926e+05
2.820989999999999895e+02 2.160586480959299952e+05
2.801800000000000068e+02 2.165483384477735381e+05
2.782610000000000241e+02 2.166245545847634203e+05
2.763419999999999845e+02 2.174152965068997000e+05
2.744220000000000255e+02 2.171837111816009274e+05
2.725009999999999764e+02 2.164377978671339806e+05
2.705799999999999841e+02 2.166784093488359067e+05
2.686589999999999918e+02 2.170375456267066475e+05
2.667370000000000232e+02 2.165223526785434224e+05
2.648149999999999977e+02 2.154246840316739981e+05
2.628919999999999959e+02 2.160386851687628659e+05
2.609689999999999941e+02 2.169372101120128937e+05
2.590450000000000159e+02 2.159604038486984209e+05
2.571209999999999809e+02 2.150541208961549273e+05
2.551959999999999980e+02 2.153805057460090611e+05
2.532709999999999866e+02 2.168224134109863953e+05
2.513449999999999989e+02 2.160099878868084052e+05
2.494190000000000111e+02 2.179800846818483551e+05
2.474919999999999902e+02 2.169168472956648620e+05
2.455649999999999977e+02 2.182751317325365380e+05
2.436370000000000005e+02 2.190310809956015728e+05
2.417090000000000032e+02 2.181875515853014076e+05
2.397800000000000011e+02 2.198986860080963233e+05
2.378509999999999991e+02 2.201953412608481594e+05
2.359219999999999970e+02 2.206325173435568577e+05
2.339919999999999902e+02 2.214943560173439619e+05
2.320610000000000070e+02 2.212528565366131370e+05
2.301299999999999955e+02 2.225058768917107373e+05
2.281990000000000123e+02 2.213654170826367917e+05
2.262669999999999959e+02 2.234596178757404559e+05
2.243340000000000032e+02 2.237354785246527754e+05
2.224010000000000105e+02 2.239378580142349238e+05
2.204679999999999893e+02 2.238767563444868138e+05
2.185339999999999918e+02 2.246603132859552279e+05
2.165999999999999943e+02 2.233263885701277759e+05
2.146649999999999920e+02 2.241341214693280344e+05
2.127299999999999898e+02 2.242163722130092210e+05
2.107940000000000111e+02 2.255872795750141959e+05
2.088569999999999993e+02 2.251168428074286494e+05
2.069209999999999923e+02 2.254047846121293260e+05
2.049830000000000041e+02 2.260365198140434513e+05
2.030449999999999875e+02 2.261557713642237359e+05
2.011069999999999993e+02 2.261635392626701214e+05
1.991680000000000064e+02 2.250589607861092081e+05
1.972290000000000134e+02 2.275008981585610309e+05
1.952899999999999920e+02 2.258643513800256769e+05
1.933489999999999895e+02 2.264145935054233996e+05
1.914089999999999918e+02 2.270362142031073454e+05
1.894670000000000130e+02 2.270246223054190341e+05
1.875260000000000105e+02 2.274654089800169168e+05
1.855840000000000032e+02 2.293958460318207508e+05
1.836409999999999911e+02 2.286009327105983393e+05
1.816980000000000075e+02 2.289905332387997769e+05
1.797539999999999907e+02 2.293237823931502935e+05
1.778100000000000023e+02 2.305725448963835370e+05
1.758650000000000091e+02 2.322839550244261627e+05
1.739199999999999875e+02 2.322088780005528533e+05
1.719749999999999943e+02 2.328973138247636380e+05
1.700289999999999964e+02 2.337953960214652179e+05
1.680819999999999936e+02 2.354321238388801576e+05
1.661349999999999909e+02 2.352463635020092479e+05
1.641870000000000118e+02 2.377072477829666750e+05
1.622390000000000043e+02 2.372606434080669715e+05
1.602909999999999968e+02 2.389545503773101082e+05
1.583420000000000130e+02 2.409371007101314608e+05
1.563919999999999959e+02 2.418802936535945628e+05
1.544420000000000073e+02 2.433139969372853520e+05
1.524919999999999902e+02 2.435492105612037703e+05
1.505409999999999968e+02 2.433940655402260891e+05
1.485889999999999986e+02 2.447475611206432804e+05
1.466370000000000005e+02 2.445835660363427014e+05
1.446850000000000023e+02 2.446280802873244102e+05
1.427319999999999993e+02 2.462522338828753564e+05
1.407779999999999916e+02 2.495680260685138637e+05
1.388240000000000123e+02 2.501243265834590420e+05
1.368700000000000045e+02 2.486661354277109203e+05
1.349149999999999920e+02 2.488015816039369965e+05
1.329590000000000032e+02 2.505756643568830041e+05
1.310029999999999859e+02 2.515322544321299065e+05
1.290469999999999970e+02 2.533073518296777038e+05
1.270900000000000034e+02 2.522370845445443410e+05
1.251320000000000050e+02 2.545184518207028741e+05
1.231740000000000066e+02 2.544693254111263377e+05
1.212159999999999940e+02 2.541707053158147610e+05
1.192570000000000050e+02 2.520357185211062606e+05
1.172980000000000018e+02 2.526402375362584426e+05
1.153379999999999939e+02 2.500253888429475483e+05
1.133769999999999953e+02 2.468361716839876608e+05
1.114159999999999968e+02 2.458074593253071944e+05
1.094549999999999983e+02 2.486632517669061781e+05
1.074929999999999950e+02 2.484316744802357862e+05
1.055300000000000011e+02 2.425327267073374533e+05
1.035669999999999931e+02 2.323642827241071500e+05
1.016039999999999992e+02 2.240933425305448472e+05
9.963989999999999725e+01 2.174640430328590155e+05
9.767539999999999623e+01 2.156102964514336199e+05
9.571040000000000703e+01 2.149111148781100928e+05
9.374490000000000123e+01 2.179044979333296360e+05
9.177899999999999636e+01 2.191644328926529852e+05
8.981250000000000000e+01 2.182329440912193386e+05
8.784550000000000125e+01 2.176990187790794880e+05
8.587800000000000011e+01 2.185766565762883110e+05
8.390999999999999659e+01 2.162438571028041479e+05
8.194150000000000489e+01 2.097766199784888013e+05
7.997239999999999327e+01 2.026909570158554125e+05
7.800289999999999679e+01 1.992788434237147740e+05
7.603289999999999793e+01 1.962822910397422966e+05
7.406239999999999668e+01 1.899622994834134297e+05
7.209130000000000393e+01 1.773968804653676343e+05
7.011979999999999791e+01 1.538570093969783629e+05
6.814770000000000039e+01 1.228287100545507565e+05
6.617520000000000380e+01 9.026565795081816032e+04
6.420210000000000150e+01 5.969657676031375013e+04
6.222849999999999682e+01 3.523715406143650034e+04
6.025439999999999685e+01 1.921038947296649712e+04
5.827980000000000160e+01 9.033182613587234300e+03
