1.838160000000000082e+03 9.782038256628948147e+01
1.836589999999999918e+03 5.301621131533611333e+02
1.835029999999999973e+03 7.543458098480950866e+02
1.833460000000000036e+03 6.385481867106718710e+02
1.831890000000000100e+03 4.829809835900268808e+02
1.830329999999999927e+03 5.443551665369595867e+02
1.828759999999999991e+03 4.479486096918044495e+02
1.827190000000000055e+03 6.273724728634406347e+02
1.825619999999999891e+03 5.549267560518492246e+02
1.824049999999999955e+03 5.925114592570425884e+02
1.822490000000000009e+03 5.153365809735914809e+02
1.820920000000000073e+03 6.246819304542841564e+02
1.819349999999999909e+03 4.647576999517550576e+02
1.817779999999999973e+03 5.740638894660041842e+02
1.816210000000000036e+03 3.697004989970373572e+02
1.814640000000000100e+03 3.453675285448480281e+02
1.813069999999999936e+03 4.260649781094434729e+02
1.811490000000000009e+03 5.098842055027271272e+02
1.809920000000000073e+03 3.233426888589565351e+02
1.808349999999999909e+03 3.755315922319641686e+02
1.806779999999999973e+03 5.691509156217471173e+02
1.805210000000000036e+03 2.333006590283257538e+02
1.803630000000000109e+03 3.077731502880560583e+02
1.802059999999999945e+03 2.041839274862541060e+02
1.800490000000000009e+03 3.803251247012376552e+02
1.798910000000000082e+03 2.005896522777147766e+02
1.797339999999999918e+03 3.084918832843286509e+02
1.795769999999999982e+03 4.258245343077323923e+02
1.794190000000000055e+03 2.319810982009512372e+02
1.792619999999999891e+03 1.541747830159802106e+02
1.791039999999999964e+03 2.397927694511017762e+02
1.789470000000000027e+03 2.588474880577668955e+02
1.787890000000000100e+03 2.239268970347839058e+02
1.786309999999999945e+03 -3.456288522115937667e+01
1.784740000000000009e+03 4.008348095198743977e+01
1.783160000000000082e+03 1.162551212379476056e+02
1.781579999999999927e+03 1.798575702909474785e+02
1.780009999999999991e+03 2.211955840305781749e+02
1.778430000000000064e+03 1.595594556254800409e+02
1.776849999999999909e+03 2.136541359874245245e+02
1.775269999999999982e+03 -2.037488357746042311e-02
1.773690000000000055e+03 1.365359230124668102e+02
1.772109999999999900e+03 3.204230296755595191e+02
1.770529999999999973e+03 3.429409451056926628e+02
1.768950000000000045e+03 1.200896693028771551e+02
1.767369999999999891e+03 1.394692022671079030e+02
1.765789999999999964e+03 1.841795439983834513e+02
1.764210000000000036e+03 2.842206944967074378e+02
1.762630000000000109e+03 2.846926537620784075e+02
1.761049999999999955e+03 4.959542179448908428e+01
1.759470000000000027e+03 -2.071001406045979820e+00
1.757890000000000100e+03 -1.358066158395376988e+02
1.756309999999999945e+03 -7.041142150598170701e+01
1.754720000000000027e+03 -4.128705444980732864e+01
1.753140000000000100e+03 2.566995241003678530e+01
1.751559999999999945e+03 1.195577680369351583e+02
1.749970000000000027e+03 4.127534259716412635e+01
1.748390000000000100e+03 2.152497075034989393e+01
1.746799999999999955e+03 -6.769525094461278059e+01
1.745220000000000027e+03 -3.368381026514180121e+01
1.743630000000000109e+03 2.075817178470242652e+01
1.742049999999999955e+03 -2.212685750095333788e+02
1.740460000000000036e+03 1.029356107851344859e+02
1.738880000000000109e+03 5.647067651718316483e+01
1.737289999999999964e+03 -1.816293394334570621e+01
1.735710000000000036e+03 -2.000660556850016292e+02
1.734119999999999891e+03 3.886253759927421925e+01
1.732529999999999973e+03 -1.396776691308696172e+02
1.730940000000000055e+03 -2.597866758754571492e+02
1.729359999999999900e+03 -2.066659775723346684e+02
1.727769999999999982e+03 -3.401278057211311534e+01
1.726180000000000064e+03 -5.172838358631634037e+01
1.724589999999999918e+03 -1.370127866149523470e+02
1.723000000000000000e+03 1.673401034197377157e+01
1.721410000000000082e+03 1.331200728447220172e+01
1.719819999999999936e+03 -1.411787957874621497e+02
1.718230000000000018e+03 -2.231383988738307380e+02
1.716640000000000100e+03 -1.761668019746321079e+02
1.715049999999999955e+03 -2.030640050898655318e+02
1.713460000000000036e+03 -4.719300082195259165e+02
1.711869999999999891e+03 -3.981648113636256312e+02
1.710279999999999973e+03 -2.521684145221552171e+02
1.708680000000000064e+03 -3.762367718150308065e+02
1.707089999999999918e+03 -5.065777787761035142e+02
1.705500000000000000e+03 -5.316875857516060933e+02
1.703910000000000082e+03 -2.710661927415458194e+02
1.702309999999999945e+03 -4.875087677264054946e+02
1.700720000000000027e+03 -4.089247785188854323e+02
1.699119999999999891e+03 -4.746043636195099680e+02
1.697529999999999973e+03 -4.023577782145221136e+02
1.695940000000000055e+03 -6.278799928239786823e+02
1.694339999999999918e+03 -6.432651918284718704e+02
1.692740000000000009e+03 -8.059187971606261272e+02
1.691150000000000091e+03 -7.068470193607281544e+02
1.689549999999999955e+03 -7.001376348086450889e+02
1.687960000000000036e+03 -6.136032608112800517e+02
1.686359999999999900e+03 -7.744308863749683951e+02
1.684759999999999991e+03 -4.875269182662959793e+02
1.683170000000000073e+03 -6.074985518595931353e+02
1.681569999999999936e+03 -5.835315938666899456e+02
1.679970000000000027e+03 -5.798330422014514625e+02
1.678369999999999891e+03 -5.152028968638624065e+02
1.676769999999999982e+03 -4.363411578539344191e+02
1.675170000000000073e+03 -5.827478251716602244e+02
1.673569999999999936e+03 -5.633228988170485536e+02
1.671970000000000027e+03 -4.157663787900819443e+02
1.670369999999999891e+03 -5.415782650907785865e+02
1.668769999999999982e+03 -6.314585577191282937e+02
1.667170000000000073e+03 -6.478072566751361592e+02
1.665569999999999936e+03 -5.752243619588007277e+02
1.663970000000000027e+03 -4.089098735701190890e+02
1.662369999999999891e+03 -4.548637915090912429e+02
1.660769999999999982e+03 -3.587861157757215551e+02
1.659160000000000082e+03 -4.249666890889311617e+02
1.657559999999999945e+03 -4.474256285504234256e+02
1.655960000000000036e+03 -4.184529743395723926e+02
1.654349999999999909e+03 -5.733379755598107295e+02
1.652750000000000000e+03 -5.427019365438172827e+02
1.651150000000000091e+03 -6.117343038554790837e+02
1.649539999999999964e+03 -5.607237329827548820e+02
1.647940000000000055e+03 -6.966927154892800900e+02
1.646329999999999927e+03 -5.459183636563830078e+02
1.644730000000000018e+03 -4.871239613577563432e+02
1.643119999999999891e+03 -4.391858285646885633e+02
1.641509999999999991e+03 -5.158157059442455648e+02
1.639910000000000082e+03 -4.989261277076839178e+02
1.638299999999999955e+03 -5.255922241270709492e+02
1.636690000000000055e+03 -3.796263307190783962e+02
1.635089999999999918e+03 -5.244415765445883153e+02
1.633480000000000018e+03 -3.489119021764163335e+02
1.631869999999999891e+03 -2.340502379808785918e+02
1.630259999999999991e+03 -3.817565839579547173e+02
1.628650000000000091e+03 -3.647309401076636277e+02
1.627039999999999964e+03 -5.186733064299951366e+02
1.625430000000000064e+03 -3.927836829249426955e+02
1.623819999999999936e+03 -2.654620695925186737e+02
1.622210000000000036e+03 -2.980084664327223436e+02
1.620599999999999909e+03 -4.206228734455435188e+02
1.618990000000000009e+03 -3.615052906309902028e+02
1.617380000000000109e+03 -3.194557179890653060e+02
1.615769999999999982e+03 -3.286741555197586422e+02
1.614160000000000082e+03 -4.261606032230847632e+02
1.612549999999999955e+03 -2.864150610990218411e+02
1.610930000000000064e+03 -3.512214196680070017e+02
1.609319999999999936e+03 -3.928116991946189955e+02
1.607710000000000036e+03 -3.459699888938484946e+02
1.606089999999999918e+03 -3.548795819682709407e+02
1.604480000000000018e+03 -2.414736933181702625e+02
1.602859999999999900e+03 -3.742187094199580315e+02
1.601250000000000000e+03 -3.381486424205395451e+02
1.599630000000000109e+03 -2.479290815496970026e+02
1.598019999999999982e+03 -3.309948362009417906e+02
1.596400000000000091e+03 -4.898106983574944024e+02
1.594789999999999964e+03 -4.211122746594010096e+02
1.593170000000000073e+03 -2.612635598433334962e+02
1.591549999999999955e+03 -1.708824565766008163e+02
1.589940000000000055e+03 -2.583876660072164668e+02
1.588319999999999936e+03 -3.767419857678578410e+02
1.586700000000000045e+03 -3.234639170778464177e+02
1.585079999999999927e+03 -4.014534599371618242e+02
1.583470000000000027e+03 -2.848301139745417458e+02
1.581849999999999909e+03 -2.407550798612392100e+02
1.580230000000000018e+03 -1.812476572972809663e+02
1.578609999999999900e+03 -3.147078462826466421e+02
1.576990000000000009e+03 -1.486356468173580652e+02
1.575369999999999891e+03 -2.583105890139631811e+01
1.573750000000000000e+03 -1.282940825347759528e+02
1.572130000000000109e+03 -1.612247177175013348e+02
1.570500000000000000e+03 -2.974018653911662113e+02
1.568880000000000109e+03 -1.683675237438474142e+02
1.567259999999999991e+03 -1.966007936458627228e+02
1.565640000000000100e+03 -3.064016750972150476e+02
1.564019999999999982e+03 -1.867016809790584375e+01
1.562390000000000100e+03 -8.068417271188445739e+01
1.560769999999999982e+03 1.623123111174572841e+02
1.559150000000000091e+03 4.560411833974721958e+02
1.557519999999999982e+03 1.871825145084450924e+03
1.555900000000000091e+03 2.677618994194494007e+03
1.554269999999999982e+03 2.306068333803043060e+03
1.552650000000000091e+03 1.134627159743125958e+03
1.551019999999999982e+03 6.312418772732598882e+02
1.549400000000000091e+03 3.172656800433760509e+02
1.547769999999999982e+03 2.356457754950824892e+02
1.546140000000000100e+03 1.417586604890020681e+02
1.544519999999999982e+03 1.478800284685275983e+02
1.542890000000000100e+03 1.601582913840175024e+02
1.541259999999999991e+03 2.031693438417278230e+02
1.539640000000000100e+03 2.169882770306612656e+02
1.538009999999999991e+03 1.525647074099397287e+02
1.536380000000000109e+03 2.615739273314284219e+02
1.534750000000000000e+03 1.251159367951222521e+02
1.533119999999999891e+03 2.173907358010292228e+02
1.531490000000000009e+03 2.236983243491413305e+02
1.529859999999999900e+03 3.236387024394571199e+02
1.528230000000000018e+03 1.858118700719860499e+02
1.526599999999999909e+03 2.229178272467142961e+02
1.524970000000000027e+03 3.749565739636600483e+02
1.523339999999999918e+03 3.339281102228123927e+02
1.521710000000000036e+03 3.511324360241669638e+02
1.520069999999999936e+03 4.510968741327378666e+02
1.518440000000000055e+03 5.479669801813433878e+02
1.516809999999999945e+03 4.381698757721533184e+02
1.515180000000000064e+03 4.784055609051756619e+02
1.513539999999999964e+03 5.907021642308827722e+02
1.511910000000000082e+03 4.229036296111517004e+02
1.510269999999999982e+03 3.546664167439048470e+02
1.508640000000000100e+03 4.164336623714298184e+02
1.507000000000000000e+03 6.846626333112326392e+02
1.505369999999999891e+03 6.668956591860005574e+02
1.503730000000000018e+03 5.880908139328530524e+02
1.502099999999999909e+03 5.811896200548799243e+02
1.500460000000000036e+03 6.125509586087791831e+02
1.498819999999999936e+03 4.025454902646888513e+02
1.497190000000000055e+03 3.789430673390015727e+02
1.495549999999999955e+03 4.928037828019660083e+02
1.493910000000000082e+03 5.196976913669241185e+02
1.492269999999999982e+03 3.588247930338984588e+02
1.490640000000000100e+03 2.957541317655450257e+02
1.489000000000000000e+03 9.384741723956904025e+01
1.487359999999999900e+03 3.313738958155990986e+02
1.485720000000000027e+03 1.785335674936250143e+02
1.484079999999999927e+03 3.047264322736664326e+02
1.482440000000000055e+03 2.129524901557124394e+02
1.480799999999999955e+03 2.339117411397674005e+02
1.479160000000000082e+03 1.164041852258233121e+02
1.477519999999999982e+03 2.700298224138896330e+02
1.475869999999999891e+03 8.102143031395826256e+01
1.474230000000000018e+03 -1.808634389700091560e+01
1.472589999999999918e+03 1.584390749940430396e+02
1.470950000000000045e+03 -3.030231301290041301e+01
1.469299999999999955e+03 9.602308051414365764e+01
1.467660000000000082e+03 1.249482811081652471e+02
1.466019999999999982e+03 3.670667480420524953e+01
1.464369999999999891e+03 1.253245845924539026e+01
1.462730000000000018e+03 -1.044425592437364685e+02
1.461079999999999927e+03 1.967502190403320128e+02
1.459440000000000055e+03 7.834178993832028937e+01
1.457789999999999964e+03 3.150156285142656998e+01
1.456150000000000091e+03 -1.524027764961283538e+01
1.454500000000000000e+03 3.818648989251960302e+01
1.452849999999999909e+03 1.129468565647184732e+02
1.451210000000000036e+03 -2.094999836375791347e+00
1.449559999999999945e+03 3.079323614648528746e+02
1.447910000000000082e+03 1.080933218961399689e+02
1.446259999999999991e+03 4.178788145748330862e+01
1.444609999999999900e+03 8.791604014889890095e+01
1.442970000000000027e+03 3.688409588456961501e+02
1.441319999999999936e+03 3.239361121661349898e+02
1.439670000000000073e+03 2.305648646166337130e+02
1.438019999999999982e+03 2.342272161971959576e+02
1.436369999999999891e+03 3.545231669078202685e+02
1.434720000000000027e+03 2.264527167484993697e+02
1.433059999999999945e+03 -1.504607336953267804e+01
1.431410000000000082e+03 4.485087836236925796e+01
1.429759999999999991e+03 -1.117185707756725606e+02
1.428109999999999900e+03 -1.562544207836544956e+02
1.426460000000000036e+03 -1.613566716615750920e+02
1.424799999999999955e+03 -2.568624310862287530e+01
1.423150000000000091e+03 -5.192109209533373360e+01
1.421500000000000000e+03 2.061776580480254779e+02
1.419839999999999918e+03 -1.570503002503537573e+02
1.418190000000000055e+03 -5.018414821578335250e+01
1.416529999999999973e+03 1.156557038733662921e+02
1.414880000000000109e+03 -5.991074220085647539e+01
1.413220000000000027e+03 1.079692027582132141e+01
1.411569999999999936e+03 1.358978760928148404e+02
1.409910000000000082e+03 4.207334895701205824e+01
1.408259999999999991e+03 1.610417066652189533e+02
1.406599999999999909e+03 -1.261501008306368021e+01
1.404940000000000055e+03 -1.153377192049738369e+02
1.403279999999999973e+03 -2.332642070050860639e+01
1.401630000000000109e+03 9.776944421217194758e+00
1.399970000000000027e+03 1.861560533132033015e+02
1.398309999999999945e+03 1.228691698315597023e+02
1.396650000000000091e+03 7.771629397628930747e+01
1.394990000000000009e+03 1.545974257473899343e+02
1.393329999999999927e+03 5.081256514486813103e+01
1.391670000000000073e+03 1.382617121687071631e+02
1.390009999999999991e+03 1.655448668189201271e+02
1.388349999999999909e+03 -8.103797090449370444e+01
1.386690000000000055e+03 4.111319899846785120e+01
1.385029999999999973e+03 3.699837652779751807e+01
1.383369999999999891e+03 2.133175616834960238e+02
1.381700000000000045e+03 -3.898484614270273596e+01
1.380039999999999964e+03 -4.909744086903810967e+01
1.378380000000000109e+03 -1.097602796900173416e+01
1.376710000000000036e+03 -5.247559222107520327e+01
1.375049999999999955e+03 1.073140407969221997e+02
1.373390000000000100e+03 8.737681441289169015e+00
1.371720000000000027e+03 -2.159590392366662854e+02
1.370059999999999945e+03 6.703282152566316654e+01
1.368390000000000100e+03 1.984047319302371761e+02
1.366730000000000018e+03 9.246481281052911072e+01
1.365059999999999945e+03 -2.794645702368143247e+00
1.363390000000000100e+03 -4.691968562433248735e+01
1.361730000000000018e+03 -2.576571721344917023e+02
1.360059999999999945e+03 -1.652135809739193064e+02
1.358390000000000100e+03 -1.821355712224176386e+02
1.356730000000000018e+03 -1.107706251230192720e+02
1.355059999999999945e+03 3.267601571101477020e+01
1.353390000000000100e+03 -1.236429248640160949e+02
1.351720000000000027e+03 4.977255315189177054e+01
1.350049999999999955e+03 -1.542775502412659989e+02
1.348380000000000109e+03 -7.979323504348576535e+01
1.346710000000000036e+03 -2.461745012547617080e+02
1.345039999999999964e+03 -5.032134887510619592e+01
1.343369999999999891e+03 -3.563377790450977045e+01
1.341700000000000045e+03 -1.241117883429760695e+02
1.340029999999999973e+03 -7.035538019050727598e+01
1.338359999999999900e+03 -1.721645534470953862e+02
1.336680000000000064e+03 -1.968935267754932283e+01
1.335009999999999991e+03 -1.901294826529156126e+02
1.333339999999999918e+03 -2.408351940373540856e+02
1.331660000000000082e+03 -6.895591186347155599e+01
1.329990000000000009e+03 -9.569257996668238775e+01
1.328319999999999936e+03 -1.717948294789530337e+02
1.326640000000000100e+03 -9.091146590075004497e+01
1.324970000000000027e+03 -3.116446721317988704e+02
1.323289999999999964e+03 -1.366918518395468709e+02
1.321619999999999891e+03 -1.617560147893782414e+02
1.319940000000000055e+03 -1.838337377830794139e+02
1.318259999999999991e+03 3.023371246970782522e+00
1.316589999999999918e+03 8.386287626865305356e+01
1.314910000000000082e+03 -8.111055798724555643e+01
1.313230000000000018e+03 -2.254916021939425264e+01
1.311559999999999945e+03 -7.720598722621070920e+01
1.309880000000000109e+03 -1.182751327443074842e+02
1.308200000000000045e+03 6.399055376135947881e+01
1.306519999999999982e+03 -3.370892770922364434e+01
1.304839999999999918e+03 -4.637357715604593977e+01
1.303160000000000082e+03 1.239660542089404771e+01
1.301480000000000018e+03 1.322016200215948629e+02
1.299799999999999955e+03 9.274146664604995749e+01
1.298119999999999891e+03 2.289161452942607866e+02
1.296440000000000055e+03 7.652565596624117461e+01
1.294759999999999991e+03 2.394699986619743868e+02
1.293069999999999936e+03 2.746045108481230272e+02
1.291390000000000100e+03 1.774187249248534499e+02
1.289710000000000036e+03 2.303677710253359692e+02
1.288029999999999973e+03 4.556516491495858645e+02
1.286339999999999918e+03 5.264265273322744179e+02
1.284660000000000082e+03 4.784802768375120650e+02
1.282980000000000018e+03 4.527688583665149054e+02
1.281289999999999964e+03 7.299490631885055336e+02
1.279609999999999900e+03 6.746075160984946706e+02
1.277920000000000073e+03 7.544580082025604497e+02
1.276240000000000009e+03 7.733863324935446144e+02
1.274549999999999955e+03 7.464071118796782685e+02
1.272859999999999900e+03 7.817631391906470526e+02
1.271180000000000064e+03 9.415963742198582622e+02
1.269490000000000009e+03 9.592226888129043800e+02
1.267799999999999955e+03 1.052384251330779080e+03
1.266109999999999900e+03 9.959810617734983680e+02
1.264420000000000073e+03 1.114313120141043328e+03
1.262740000000000009e+03 1.214921344622951437e+03
1.261049999999999955e+03 1.322823690272576641e+03
1.259359999999999900e+03 1.513761283847034065e+03
1.257670000000000073e+03 1.510734125346327346e+03
1.255980000000000018e+03 1.614242214770456485e+03
1.254289999999999964e+03 1.858285552119425120e+03
1.252599999999999909e+03 1.855264137393231067e+03
1.250900000000000091e+03 2.100738512375566643e+03
1.249210000000000036e+03 2.338687802066648146e+03
1.247519999999999982e+03 2.447972339682564780e+03
1.245829999999999927e+03 2.601692125223315088e+03
1.244140000000000100e+03 2.823147158688905620e+03
1.242440000000000055e+03 3.050599025935171085e+03
1.240750000000000000e+03 3.329624763818039355e+03
1.239059999999999945e+03 3.674885749625740573e+03
1.237359999999999900e+03 4.124944196151052893e+03
1.235670000000000073e+03 4.490675886376029666e+03
1.233970000000000027e+03 5.014105455687949870e+03
1.232279999999999973e+03 5.199607850330205110e+03
1.230579999999999927e+03 5.597408542428733199e+03
1.228880000000000109e+03 6.182244900821431656e+03
1.227190000000000055e+03 6.694653456373402150e+03
1.225490000000000009e+03 7.019860937552712130e+03
1.223789999999999964e+03 7.705704085026187386e+03
1.222089999999999918e+03 8.410482898793834465e+03
1.220400000000000091e+03 8.857233071747956274e+03
1.218700000000000045e+03 9.698383008302211238e+03
1.217000000000000000e+03 1.006976861115063730e+04
1.215299999999999955e+03 1.085298988029323664e+04
1.213599999999999909e+03 1.194774681572999907e+04
1.211900000000000091e+03 1.235083941746093478e+04
1.210200000000000045e+03 1.298166768548603795e+04
1.208500000000000000e+03 1.385333161980531077e+04
1.206799999999999955e+03 1.437783122041875322e+04
1.205099999999999909e+03 1.523266648732636895e+04
1.203390000000000100e+03 1.599320382565314867e+04
1.201690000000000055e+03 1.668001063495083145e+04
1.199990000000000009e+03 1.737385311054268095e+04
1.198289999999999964e+03 1.809093125242870155e+04
1.196579999999999927e+03 1.899271230617494439e+04
1.194880000000000109e+03 1.954186199045103422e+04
1.193170000000000073e+03 2.063811500742493081e+04
1.191470000000000027e+03 2.133633623409108986e+04
1.189759999999999991e+03 2.220586121429264313e+04
1.188059999999999945e+03 2.282585398334888305e+04
1.186349999999999909e+03 2.358045092677808861e+04
1.184650000000000091e+03 2.431711523822438539e+04
1.182940000000000055e+03 2.515898414488126582e+04
1.181230000000000018e+03 2.609868913866988441e+04
1.179529999999999973e+03 2.691496086860216019e+04
1.177819999999999936e+03 2.759913782561844710e+04
1.176109999999999900e+03 2.858895086976649327e+04
1.174400000000000091e+03 2.940870000104629435e+04
1.172690000000000055e+03 2.990478521945786633e+04
1.170980000000000018e+03 3.103830652500118595e+04
1.169269999999999982e+03 3.165086391767626628e+04
1.167559999999999945e+03 3.265055739748310225e+04
1.165849999999999909e+03 3.322298696442169603e+04
1.164140000000000100e+03 3.426435261849204835e+04
1.162430000000000064e+03 3.500285435969415994e+04
1.160720000000000027e+03 3.583309218802802934e+04
1.159009999999999991e+03 3.690976610349366092e+04
1.157289999999999964e+03 3.785314820054532174e+04
1.155579999999999927e+03 3.904139450131032208e+04
1.153869999999999891e+03 3.929807688920709188e+04
1.152160000000000082e+03 4.020969536423560930e+04
1.150440000000000055e+03 4.107582286622772517e+04
1.148730000000000018e+03 4.218651372655561863e+04
1.147009999999999991e+03 4.272241403715295019e+04
1.145299999999999955e+03 4.346937728278021677e+04
1.143579999999999927e+03 4.450905040198277129e+04
1.141869999999999891e+03 4.558308603290942119e+04
1.140150000000000091e+03 4.643543196071719285e+04
1.138430000000000064e+03 4.706461439896256343e+04
1.136720000000000027e+03 4.805595871335620177e+04
1.135000000000000000e+03 4.900481396020678949e+04
1.133279999999999973e+03 4.966070571749498777e+04
1.131559999999999945e+03 5.037893398522079224e+04
1.129839999999999918e+03 5.163359876338418690e+04
1.128130000000000109e+03 5.244122435758003849e+04
1.126410000000000082e+03 5.336346194434865902e+04
1.124690000000000055e+03 5.444223604155489011e+04
1.122970000000000027e+03 5.503084664919872012e+04
1.121250000000000000e+03 5.605809376728013740e+04
1.119519999999999982e+03 5.699915415155424125e+04
1.117799999999999955e+03 5.743007450278085889e+04
1.116079999999999927e+03 5.887433136444508273e+04
1.114359999999999900e+03 5.983012473654690257e+04
1.112640000000000100e+03 6.031245461908632569e+04
1.110910000000000082e+03 6.121689883040248969e+04
1.109190000000000055e+03 6.171330194608710735e+04
1.107470000000000027e+03 6.248064157220933703e+04
1.105740000000000009e+03 6.347109616515236848e+04
1.104019999999999982e+03 6.474960902441977669e+04
1.102289999999999964e+03 6.554343727628211491e+04
1.100569999999999936e+03 6.606602336869470309e+04
1.098839999999999918e+03 6.650142527947633062e+04
1.097119999999999891e+03 6.758698460503412934e+04
1.095390000000000100e+03 6.841156017473504471e+04
1.093660000000000082e+03 6.936897268064765376e+04
1.091940000000000055e+03 7.049374196205823682e+04
1.090210000000000036e+03 6.977312812689013663e+04
1.088480000000000018e+03 7.145885122793374467e+04
1.086750000000000000e+03 7.214001126518905221e+04
1.085019999999999982e+03 7.298860823865607381e+04
1.083299999999999955e+03 7.378336092133460625e+04
1.081569999999999936e+03 7.465003155372090987e+04
1.079839999999999918e+03 7.575483912231891009e+04
1.078109999999999900e+03 7.643008362712862436e+04
1.076369999999999891e+03 7.696794714916669182e+04
1.074640000000000100e+03 7.794016573990392499e+04
1.072910000000000082e+03 7.910402126685284020e+04
1.071180000000000064e+03 7.947341373001348984e+04
1.069450000000000045e+03 8.013284312938581570e+04
1.067720000000000027e+03 8.144550946496985853e+04
1.065980000000000018e+03 8.210579610004105780e+04
1.064250000000000000e+03 8.244693652155261952e+04
1.062509999999999991e+03 8.302879767079369049e+04
1.060779999999999973e+03 8.454031217823276529e+04
1.059049999999999955e+03 8.526686362188354542e+04
1.057309999999999945e+03 8.546753643501030456e+04
1.055579999999999927e+03 8.581516196458859486e+04
1.053839999999999918e+03 8.715790929188524024e+04
1.052099999999999909e+03 8.851069398363592336e+04
1.050369999999999891e+03 8.903443074885757233e+04
1.048630000000000109e+03 8.931628995477812714e+04
1.046890000000000100e+03 9.074418652515276335e+04
1.045150000000000091e+03 9.112112045998143731e+04
1.043420000000000073e+03 9.173400561056223523e+04
1.041680000000000064e+03 9.233701405956078088e+04
1.039940000000000055e+03 9.310105987301340792e+04
1.038200000000000045e+03 9.397414305092007271e+04
1.036460000000000036e+03 9.461526359328081890e+04
1.034720000000000027e+03 9.458942150009560282e+04
1.032980000000000018e+03 9.521961677136445360e+04
1.031240000000000009e+03 9.579584940708737122e+04
1.029500000000000000e+03 9.698311940726432658e+04
1.027750000000000000e+03 9.687751485324148962e+04
1.026009999999999991e+03 9.794685979706481157e+04
1.024269999999999982e+03 9.848724210534218582e+04
1.022529999999999973e+03 9.838266177807362692e+04
1.020779999999999973e+03 9.860220775679235521e+04
1.019039999999999964e+03 9.994370237317014835e+04
1.017299999999999955e+03 9.966623435400200833e+04
1.015549999999999955e+03 1.002498932862700021e+05
1.013809999999999945e+03 1.003625002107482142e+05
1.012059999999999945e+03 1.008742345173731883e+05
1.010320000000000050e+03 1.010109163854977523e+05
1.008570000000000050e+03 1.010847260664796922e+05
1.006820000000000050e+03 1.007255735426262836e+05
1.005080000000000041e+03 1.013023679335895140e+05
1.003330000000000041e+03 1.011522907840930857e+05
1.001580000000000041e+03 1.006182514297613234e+05
9.998319999999999936e+02 1.005562315650892997e+05
9.980839999999999463e+02 1.001122494092423585e+05
9.963350000000000364e+02 1.003053141581119271e+05
9.945850000000000364e+02 1.003894258764526458e+05
9.928350000000000364e+02 1.003105753899580450e+05
9.910850000000000364e+02 1.000757626986281248e+05
9.893350000000000364e+02 9.862698780246287060e+04
9.875839999999999463e+02 9.905426000535220373e+04
9.858319999999999936e+02 9.809657937212489196e+04
9.840810000000000173e+02 9.818692727336677490e+04
9.823279999999999745e+02 9.747733175047919212e+04
9.805760000000000218e+02 9.697876476206080406e+04
9.788229999999999791e+02 9.643324506725728861e+04
9.770689999999999600e+02 9.629877273097139550e+04
9.753160000000000309e+02 9.484232890752046660e+04
9.735620000000000118e+02 9.412593248586801928e+04
9.718070000000000164e+02 9.354758353095388156e+04
9.700520000000000209e+02 9.273827258748532040e+04
9.682970000000000255e+02 9.219199965546233580e+04
9.665410000000000537e+02 9.075877429847235908e+04
9.647849999999999682e+02 8.949758699625817826e+04
9.630280000000000200e+02 8.923444735576216772e+04
9.612709999999999582e+02 8.836634581339686702e+04
9.595140000000000100e+02 8.726228236916227615e+04
9.577559999999999718e+02 8.641426669506396865e+04
9.559980000000000473e+02 8.575928916247596499e+04
9.542390000000000327e+02 8.491335948680811271e+04
9.524800000000000182e+02 8.416706799605484412e+04
9.507210000000000036e+02 8.317251469021615048e+04
9.489610000000000127e+02 8.183610934983915649e+04
9.472000000000000455e+02 8.114655204008582223e+04
9.454400000000000546e+02 7.945492317811655812e+04
9.436789999999999736e+02 7.866834239022457041e+04
9.419170000000000300e+02 7.800990974160884798e+04
9.401549999999999727e+02 7.673741540826864366e+04
9.383930000000000291e+02 7.469675939020392252e+04
9.366309999999999718e+02 7.389374168741470203e+04
9.348680000000000518e+02 7.288267225437375600e+04
9.331040000000000418e+02 7.142845115635407274e+04
9.313400000000000318e+02 7.030086846064058773e+04
9.295760000000000218e+02 6.884232416723329516e+04
9.278110000000000355e+02 6.762242831769734039e+04
9.260460000000000491e+02 6.618927091401997313e+04
9.242809999999999491e+02 6.551725195620116574e+04
9.225149999999999864e+02 6.339598155116548151e+04
9.207480000000000473e+02 6.172285976429702714e+04
9.189819999999999709e+02 6.030956635992729571e+04
9.172150000000000318e+02 5.903422161732650420e+04
9.154470000000000027e+02 5.735642560191579832e+04
9.136789999999999736e+02 5.534846816316887271e+04
9.119109999999999445e+02 5.458994930108572589e+04
9.101420000000000528e+02 5.286487927528953878e+04
9.083730000000000473e+02 5.140074786980823410e+04
9.066029999999999518e+02 5.005886538794078660e+04
9.048329999999999700e+02 4.812302157006400375e+04
9.030629999999999882e+02 4.692231641617786954e+04
9.012920000000000300e+02 4.566716029512592650e+04
8.995209999999999582e+02 4.397374288176509435e+04
8.977490000000000236e+02 4.218937458866405359e+04
8.959769999999999754e+02 4.122134504697928787e+04
8.942050000000000409e+02 3.996895425671080011e+04
8.924320000000000164e+02 3.803311269604582048e+04
8.906589999999999918e+02 3.677790993054695718e+04
8.888849999999999909e+02 3.586715648217594571e+04
8.871109999999999900e+02 3.459474187274555152e+04
8.853360000000000127e+02 3.308347666801673768e+04
8.835620000000000118e+02 3.218843975836100799e+04
8.817859999999999445e+02 3.095866290677853976e+04
8.800109999999999673e+02 2.966341435026916952e+04
8.782340000000000373e+02 2.912612598330468245e+04
8.764579999999999700e+02 2.849616591141330719e+04
8.746810000000000400e+02 2.732065546334288956e+04
8.729039999999999964e+02 2.674498398568472112e+04
8.711259999999999764e+02 2.591506221956933587e+04
8.693479999999999563e+02 2.515457946773944786e+04
8.675689999999999600e+02 2.441264651522350323e+04
8.657899999999999636e+02 2.400695262089098469e+04
8.640109999999999673e+02 2.363529778474189516e+04
8.622309999999999945e+02 2.304469285768241389e+04
8.604510000000000218e+02 2.283502703272897270e+04
8.586699999999999591e+02 2.259181120473504780e+04
8.568890000000000100e+02 2.215353452279445628e+04
8.551069999999999709e+02 2.219000792573263607e+04
8.533250000000000455e+02 2.229932051869612042e+04
8.515430000000000064e+02 2.227687230168491078e+04
8.497599999999999909e+02 2.202587427951327118e+04
8.479769999999999754e+02 2.253631549136359172e+04
8.461939999999999600e+02 2.304799593723587532e+04
8.444099999999999682e+02 2.338432668797021688e+04
8.426259999999999764e+02 2.349779671674786005e+04
8.408410000000000082e+02 2.442501713845493578e+04
8.390560000000000400e+02 2.516707688225133461e+04
8.372699999999999818e+02 2.591858710709388106e+04
8.354840000000000373e+02 2.682523669809645435e+04
8.336970000000000027e+02 2.803653685831127950e+04
8.319109999999999445e+02 2.911586520367542471e+04
8.301230000000000473e+02 3.019755540950716022e+04
8.283360000000000127e+02 3.167447380048822015e+04
8.265480000000000018e+02 3.297324289300470991e+04
8.247590000000000146e+02 3.408406275325526076e+04
8.229700000000000273e+02 3.556212211202603066e+04
8.211810000000000400e+02 3.682562096931705310e+04
8.193909999999999627e+02 3.793917070473484637e+04
8.176009999999999991e+02 3.946145998284230882e+04
8.158099999999999454e+02 4.074300022744010494e+04
8.140190000000000055e+02 4.185918005892169458e+04
8.122279999999999518e+02 4.318699947728707775e+04
8.104360000000000355e+02 4.433576997265893442e+04
8.086440000000000055e+02 4.551468009913338028e+04
8.068509999999999991e+02 4.705564139107659139e+04
8.050579999999999927e+02 4.774414235836586886e+04
8.032649999999999864e+02 4.907348300100121560e+04
8.014710000000000036e+02 5.001487491974489967e+04
7.996760000000000446e+02 5.093781818101765384e+04
7.978819999999999482e+02 5.181568956113005697e+04
7.960860000000000127e+02 5.227972399528441747e+04
7.942910000000000537e+02 5.311528654827843275e+04
7.924950000000000045e+02 5.386970057671708491e+04
7.906979999999999791e+02 5.439566614709519490e+04
7.889020000000000437e+02 5.503125981414801208e+04
7.871040000000000418e+02 5.542051684555190877e+04
7.853070000000000164e+02 5.569140197363050538e+04
7.835090000000000146e+02 5.608583877671221853e+04
7.817100000000000364e+02 5.696262732136590057e+04
7.799109999999999445e+02 5.700515580734489777e+04
7.781119999999999663e+02 5.707972423464918393e+04
7.763120000000000118e+02 5.783624451453523943e+04
7.745119999999999436e+02 5.780930478016286361e+04
7.727110000000000127e+02 5.831271698722945439e+04
7.709099999999999682e+02 5.850086922447855613e+04
7.691090000000000373e+02 5.855446149191015866e+04
7.673070000000000164e+02 5.896310581191394886e+04
7.655040000000000191e+02 5.912070225120686518e+04
7.637019999999999982e+02 5.946122674274590099e+04
7.618990000000000009e+02 5.961720339806436823e+04
7.600950000000000273e+02 5.956673228391627345e+04
7.582910000000000537e+02 6.007620133342158806e+04
7.564869999999999663e+02 6.037201054658034263e+04
7.546820000000000164e+02 6.092267210159084061e+04
7.528769999999999527e+02 6.068647386479443958e+04
7.510710000000000264e+02 6.109432805895380443e+04
7.492649999999999864e+02 6.139682250587064482e+04
7.474579999999999700e+02 6.144036947289664386e+04
7.456509999999999536e+02 6.135535673726914683e+04
7.438440000000000509e+02 6.211828429898813192e+04
7.420359999999999445e+02 6.252006449231975421e+04
7.402279999999999518e+02 6.256898502761159034e+04
7.384189999999999827e+02 6.269275828376815480e+04
7.366100000000000136e+02 6.274867192652335507e+04
7.348010000000000446e+02 6.289862595587717078e+04
7.329909999999999854e+02 6.381653281772260380e+04
7.311810000000000400e+02 6.365548011082972516e+04
7.293700000000000045e+02 6.409938032577931153e+04
7.275589999999999691e+02 6.462862101667837123e+04
7.257469999999999573e+02 6.503351471882012265e+04
7.239349999999999454e+02 6.553614894162378914e+04
7.221230000000000473e+02 6.584692368508937943e+04
7.203099999999999454e+02 6.607755155160964932e+04
7.184969999999999573e+02 6.665841998352896189e+04
7.166829999999999927e+02 6.744024162800188060e+04
7.148690000000000282e+02 6.745010388263569621e+04
7.130539999999999736e+02 6.824241943937141332e+04
7.112390000000000327e+02 6.821637565105453541e+04
7.094239999999999782e+02 6.855937251768499846e+04
7.076079999999999472e+02 6.924512279841452255e+04
7.057920000000000300e+02 7.000761377890258154e+04
7.039750000000000227e+02 6.964695826313670841e+04
7.021580000000000155e+02 7.016564349196526746e+04
7.003400000000000318e+02 7.020128231423630496e+04
6.985220000000000482e+02 7.157366192596229666e+04
6.967039999999999509e+02 7.187308232714327460e+04
6.948849999999999909e+02 7.217235643394893850e+04
6.930660000000000309e+02 7.276977137509481690e+04
6.912459999999999809e+02 7.316634011166052369e+04
6.894260000000000446e+02 7.324274972747633001e+04
6.876059999999999945e+02 7.415140022254225914e+04
6.857849999999999682e+02 7.493740462533365644e+04
6.839629999999999654e+02 7.446176300327094214e+04
6.821420000000000528e+02 7.519394927690520126e+04
6.803189999999999600e+02 7.555410266657742613e+04
6.784969999999999573e+02 7.647088395194662735e+04
6.766730000000000018e+02 7.698143248830566881e+04
6.748500000000000227e+02 7.757130892036168370e+04
6.730259999999999536e+02 7.788553955248340208e+04
6.712019999999999982e+02 7.888341124374166247e+04
6.693769999999999527e+02 7.945063722510759544e+04
6.675520000000000209e+02 7.982730431064341974e+04
6.657259999999999991e+02 8.052282577637821669e+04
6.638999999999999773e+02 8.157958839134091977e+04
6.620729999999999791e+02 8.230600547664328769e+04
6.602459999999999809e+02 8.266816375625625369e+04
6.584189999999999827e+02 8.390576323017982941e+04
6.565910000000000082e+02 8.475701728718064260e+04
6.547630000000000337e+02 8.612361258359944622e+04
6.529339999999999691e+02 8.708076255333489098e+04
6.511050000000000182e+02 8.762335380762038403e+04
6.492749999999999773e+02 8.933309982551133726e+04
6.474450000000000500e+02 9.109978717310905631e+04
6.456150000000000091e+02 9.229751585041353246e+04
6.437839999999999918e+02 9.368329940424616507e+04
6.419529999999999745e+02 9.497312433296698146e+04
6.401209999999999809e+02 9.682400422860347317e+04
6.382889999999999873e+02 9.862092554433426994e+04
6.364560000000000173e+02 1.007049019174176210e+05
6.346230000000000473e+02 1.023039197558260494e+05
6.327899999999999636e+02 1.032139790595595405e+05
6.309560000000000173e+02 1.059510935337534174e+05
6.291219999999999573e+02 1.075502495185278240e+05
6.272870000000000346e+02 1.105464607642982446e+05
6.254519999999999982e+02 1.122587135659293563e+05
6.236159999999999854e+02 1.146280217191414413e+05
6.217799999999999727e+02 1.174313714735190442e+05
6.199439999999999600e+02 1.197237628290621651e+05
6.181069999999999709e+02 1.227112096494792204e+05
6.162690000000000055e+02 1.260057120027829660e+05
6.144320000000000164e+02 1.284982421388610092e+05
6.125929999999999609e+02 1.313318417849381512e+05
6.107549999999999955e+02 1.342154692137895909e+05
6.089160000000000537e+02 1.369751523116273456e+05
6.070760000000000218e+02 1.413488911465382844e+05
6.052359999999999900e+02 1.444466717640808783e+05
6.033959999999999582e+02 1.473834941642551275e+05
6.015549999999999500e+02 1.509833724150423077e+05
5.997140000000000555e+02 1.547222924938893993e+05
5.978719999999999573e+02 1.583262685142305854e+05
5.960299999999999727e+02 1.607702864080846193e+05
5.941870000000000118e+02 1.647143603343632712e+05
5.923440000000000509e+02 1.673854761796323874e+05
5.905009999999999764e+02 1.704216339438919385e+05
5.886570000000000391e+02 1.736438478543010133e+05
5.868120000000000118e+02 1.750691179791315517e+05
5.849679999999999609e+02 1.793494158412834222e+05
5.831219999999999573e+02 1.813507842588517815e+05
5.812770000000000437e+02 1.827761804137414729e+05
5.794310000000000400e+02 1.857036329196705774e+05
5.775839999999999463e+02 1.853581418449851044e+05
5.757369999999999663e+02 1.891326928714473324e+05
5.738899999999999864e+02 1.898762859990572906e+05
5.720420000000000300e+02 1.912319356600243773e+05
5.701939999999999600e+02 1.918376274677401816e+05
5.683450000000000273e+02 1.929953759000398568e+05
5.664959999999999809e+02 1.945261665247139754e+05
5.646459999999999582e+02 1.948110138652480091e+05
5.627960000000000491e+02 1.955019034438068920e+05
5.609460000000000264e+02 1.974648352603906242e+05
5.590950000000000273e+02 1.989658239069911069e+05
5.572430000000000518e+02 2.001508694521394500e+05
5.553909999999999627e+02 2.033109573266874650e+05
5.535389999999999873e+02 2.046600875306351518e+05
5.516870000000000118e+02 2.066652600639825105e+05
5.498329999999999700e+02 2.092325043393108645e+05
5.479800000000000182e+02 2.131257763063348539e+05
5.461259999999999764e+02 2.162431054005289043e+05
5.442709999999999582e+02 2.185374916905352147e+05
5.424160000000000537e+02 2.226039204471885168e+05
5.405610000000000355e+02 2.256753916704888688e+05
5.387050000000000409e+02 2.295629202040668170e+05
5.368490000000000464e+02 2.346624912500902428e+05
5.349919999999999618e+02 2.384631196980129462e+05
5.331349999999999909e+02 2.428337907042043225e+05
5.312780000000000200e+02 2.468465042686643428e+05
5.294199999999999591e+02 2.511172753496124060e+05
5.275610000000000355e+02 2.573101040158387623e+05
5.257019999999999982e+02 2.603629753320541640e+05
5.238429999999999609e+02 2.658968892982586403e+05
5.219829999999999472e+02 2.702018609644535463e+05
5.201230000000000473e+02 2.744668753265347914e+05
5.182619999999999436e+02 2.769529474804255879e+05
5.164009999999999536e+02 2.815260623761245515e+05
5.145399999999999636e+02 2.853132200136316824e+05
5.126779999999999973e+02 2.879914355577839888e+05
5.108149999999999977e+02 2.905137090775198885e+05
5.089519999999999982e+02 2.905170254309817683e+05
5.070889999999999986e+02 2.927543846181696281e+05
5.052250000000000227e+02 2.943298018959001056e+05
5.033609999999999900e+02 2.931372620533524896e+05
5.014959999999999809e+02 2.957187803933640826e+05
4.996309999999999718e+02 2.945453416591181885e+05
4.977649999999999864e+02 2.960699611994973966e+05
4.958990000000000009e+02 2.952016237116645207e+05
4.940330000000000155e+02 2.962183291956194444e+05
4.921659999999999968e+02 2.937440930693436530e+05
4.902989999999999782e+02 2.950308999609256862e+05
4.884309999999999832e+02 2.934347653344416176e+05
4.865629999999999882e+02 2.932826737719101366e+05
4.846940000000000168e+02 2.926276407835265272e+05
4.828249999999999886e+02 2.906736509052147740e+05
4.809549999999999841e+02 2.918047196933144005e+05
4.790849999999999795e+02 2.900468316376298899e+05
4.772139999999999986e+02 2.888600023406695109e+05
4.753430000000000177e+02 2.854682162460937980e+05
4.734719999999999800e+02 2.852794733539026929e+05
4.716000000000000227e+02 2.819577893358883448e+05
4.697280000000000086e+02 2.816141485664520878e+05
4.678550000000000182e+02 2.796995667636040016e+05
4.659820000000000277e+02 2.779540282555521117e+05
4.641080000000000041e+02 2.748895488065492827e+05
4.622339999999999804e+02 2.730381126985853771e+05
4.603589999999999804e+02 2.701957357421807246e+05
4.584839999999999804e+02 2.685644021730825189e+05
4.566089999999999804e+02 2.663451119912906433e+05
4.547330000000000041e+02 2.650448810767575633e+05
4.528570000000000277e+02 2.639896935958230169e+05
4.509800000000000182e+02 2.612325654747561493e+05
4.491019999999999754e+02 2.592844967830507667e+05
4.472250000000000227e+02 2.563384556449791708e+05
4.453460000000000036e+02 2.541854899784105364e+05
4.434680000000000177e+02 2.525935518654756306e+05
4.415889999999999986e+02 2.495676733209637459e+05
4.397090000000000032e+02 2.470218544144426123e+05
4.378290000000000077e+02 2.450020791269353940e+05
4.359490000000000123e+02 2.434823474584420328e+05
4.340679999999999836e+02 2.406166755439474655e+05
4.321859999999999786e+02 2.386130634530934913e+05
4.303050000000000068e+02 2.361224788926717301e+05
4.284220000000000255e+02 2.348409704069945728e+05
4.265389999999999873e+02 2.314325056796519784e+05
4.246560000000000059e+02 2.303560847106439760e+05
4.227730000000000246e+02 2.286967074999705364e+05
4.208890000000000100e+02 2.265163903452622762e+05
4.190040000000000191e+02 2.256171333162721130e+05
4.171190000000000282e+02 2.249909201386203640e+05
4.152330000000000041e+02 2.231527671797399817e+05
4.133469999999999800e+02 2.189286581187369884e+05
4.114610000000000127e+02 2.190455929556113842e+05
4.095740000000000123e+02 2.183655881276353903e+05
4.076870000000000118e+02 2.178326272441004112e+05
4.057989999999999782e+02 2.164867267888670031e+05
4.039110000000000014e+02 2.157488703246629739e+05
4.020219999999999914e+02 2.135200743819618074e+05
4.001329999999999814e+02 2.125413224769030348e+05
3.982429999999999950e+02 2.114596311865978350e+05
3.963530000000000086e+02 2.114819839805726951e+05
3.944630000000000223e+02 2.105583808588276443e+05
3.925720000000000027e+02 2.093598384684612392e+05
3.906800000000000068e+02 2.082913568794855964e+05
3.887880000000000109e+02 2.079789194681394147e+05
3.868960000000000150e+02 2.074335262344227522e+05
3.850029999999999859e+02 2.064621939188453252e+05
3.831100000000000136e+02 2.060369058276091237e+05
3.812160000000000082e+02 2.049916787479603081e+05
3.793220000000000027e+02 2.052404959393891622e+05
3.774270000000000209e+02 2.046103742359029129e+05
3.755319999999999823e+02 2.037322968502553995e+05
3.736370000000000005e+02 2.033812637824466801e+05
3.717400000000000091e+02 2.035273088408485928e+05
3.698439999999999941e+02 2.033273813830819854e+05
3.679470000000000027e+02 2.009045152409425064e+05
3.660489999999999782e+02 2.008277104846643633e+05
3.641519999999999868e+02 2.004179331888063170e+05
3.622529999999999859e+02 2.011482343469185580e+05
3.603539999999999850e+02 2.010075800101608038e+05
3.584549999999999841e+02 1.993289701785330544e+05
3.565550000000000068e+02 1.993554219436297135e+05
3.546549999999999727e+02 1.995739182607408729e+05
3.527540000000000191e+02 1.987994762683701701e+05
3.508530000000000086e+02 1.984250788749231724e+05
3.489510000000000218e+02 1.988967432658374019e+05
3.470489999999999782e+02 1.983664523026092211e+05
3.451469999999999914e+02 1.976002059852386301e+05
3.432440000000000282e+02 1.969940215695947991e+05
3.413399999999999750e+02 1.966488991261340852e+05
3.394359999999999786e+02 1.958708214224727708e+05
3.375319999999999823e+02 1.957777884586108848e+05
3.356270000000000095e+02 1.956828175844210782e+05
3.337219999999999800e+02 1.953928914970385958e+05
3.318159999999999741e+02 1.943150275933687517e+05
3.299089999999999918e+02 1.926242259439789632e+05
3.280029999999999859e+02 1.932264517315114790e+05
3.260950000000000273e+02 1.931307572878911160e+05
3.241879999999999882e+02 1.929750902811930573e+05
3.222799999999999727e+02 1.929434856699839293e+05
3.203709999999999809e+02 1.938239435249052767e+05
3.184619999999999891e+02 1.921514463549125066e+05
3.165520000000000209e+02 1.935310117452881532e+05
3.146419999999999959e+02 1.922286221578810073e+05
3.127320000000000277e+02 1.928322775926910981e+05
3.108210000000000264e+02 1.918109957057288557e+05
3.089089999999999918e+02 1.916847765677467978e+05
3.069970000000000141e+02 1.923576025463186670e+05
3.050849999999999795e+02 1.924004736414444924e+05
3.031720000000000255e+02 1.914384076035331527e+05
3.012590000000000146e+02 1.907043867293811345e+05
2.993450000000000273e+02 1.901584288166274200e+05
2.974300000000000068e+02 1.902915339361355873e+05
2.955160000000000196e+02 1.898736664689818572e+05
2.936000000000000227e+02 1.889108799498844019e+05
2.916850000000000023e+02 1.893751208441250492e+05
2.897690000000000055e+02 1.878304249124288908e+05
2.878519999999999754e+02 1.855837922257336031e+05
2.859350000000000023e+02 1.874632048918660148e+05
2.840169999999999959e+02 1.867146808976322063e+05
2.820989999999999895e+02 1.858842023035549209e+05
2.801800000000000068e+02 1.853207871437936847e+05
2.782610000000000241e+02 1.855804174315424752e+05
2.763419999999999845e+02 1.851820931668012636e+05
2.744220000000000255e+02 1.845378324547906814e+05
2.725009999999999764e+02 1.844746353665964853e+05
2.705799999999999841e+02 1.840224838206933346e+05
2.686589999999999918e+02 1.826603778170811711e+05
2.667370000000000232e+02 1.830923355558234034e+05
2.648149999999999977e+02 1.821033388842841669e+05
2.628919999999999959e+02 1.827504060499790648e+05
2.609689999999999941e+02 1.829705188528447470e+05
2.590450000000000159e+02 1.820036955878736335e+05
2.571209999999999809e+02 1.816449180075501790e+05
2.551959999999999980e+02 1.813092044543684460e+05
2.532709999999999866e+02 1.822945366333359561e+05
2.513449999999999989e+02 1.825269329344730359e+05
2.494190000000000111e+02 1.827713750152855937e+05
2.474919999999999902e+02 1.825838813133449294e+05
2.455649999999999977e+02 1.820134334386307164e+05
2.436370000000000005e+02 1.826730498762898205e+05
2.417090000000000032e+02 1.825677121887510293e+05
2.397800000000000011e+02 1.830894389087614836e+05
2.378509999999999991e+02 1.836682115511743468e+05
2.359219999999999970e+02 1.838270301159895898e+05
2.339919999999999902e+02 1.837429132073857181e+05
2.320610000000000070e+02 1.841108608968187764e+05
2.301299999999999955e+02 1.842178546039288631e+05
2.281990000000000123e+02 1.838538943287160364e+05
2.262669999999999959e+02 1.845359987706951506e+05
2.243340000000000032e+02 1.861331680013962323e+05
2.224010000000000105e+02 1.858063833451477694e+05
2.204679999999999893e+02 1.851616448019497911e+05
2.185339999999999918e+02 1.854309711667522497e+05
2.165999999999999943e+02 1.847273436923288682e+05
2.146649999999999920e+02 1.850377812213780708e+05
2.127299999999999898e+02 1.853692649589498760e+05
2.107940000000000111e+02 1.861528137955157144e+05
2.088569999999999993e+02 1.855204278027537803e+05
2.069209999999999923e+02 1.855740691758037137e+05
2.049830000000000041e+02 1.859207947295102640e+05
2.030449999999999875e+02 1.856705666351327091e+05
2.011069999999999993e+02 1.863293848926710489e+05
1.991680000000000064e+02 1.860632685360764735e+05
1.972290000000000134e+02 1.860241985792449268e+05
1.952899999999999920e+02 1.851251750221764378e+05
1.933489999999999895e+02 1.865212360763887700e+05
1.914089999999999918e+02 1.868213244964129699e+05
1.894670000000000130e+02 1.868294976714075019e+05
1.875260000000000105e+02 1.872106982122139307e+05
1.855840000000000032e+02 1.876199644501467992e+05
1.836409999999999911e+02 1.882482964571063931e+05
1.816980000000000075e+02 1.880486750554644095e+05
1.797539999999999907e+02 1.888141195187655685e+05
1.778100000000000023e+02 1.900536106214356842e+05
1.758650000000000091e+02 1.900821676850147487e+05
1.739199999999999875e+02 1.915887714359579841e+05
1.719749999999999943e+02 1.922634218742654193e+05
1.700289999999999964e+02 1.924921383935007325e+05
1.680819999999999936e+02 1.932379210657122894e+05
1.661349999999999909e+02 1.936297505213525146e+05
1.641870000000000118e+02 1.955606462260828994e+05
1.622390000000000043e+02 1.954825887623112358e+05
1.602909999999999968e+02 1.970075781300375529e+05
1.583420000000000130e+02 1.982046338670580590e+05
1.563919999999999959e+02 1.995847560455321800e+05
1.544420000000000073e+02 2.008009251517168595e+05
1.524919999999999902e+02 2.006771411856121558e+05
1.505409999999999968e+02 2.002824237812885258e+05
1.485889999999999986e+02 2.020877730109794938e+05
1.466370000000000005e+02 2.013161692646923766e+05
1.446850000000000023e+02 2.010496125424271740e+05
1.427319999999999993e+02 2.030241225746274577e+05
1.407779999999999916e+02 2.060706994336007338e+05
1.388240000000000123e+02 2.076733234130060009e+05
1.368700000000000045e+02 2.060299945128432591e+05
1.349149999999999920e+02 2.066087325600278273e+05
1.329590000000000032e+02 2.064225376269412809e+05
1.310029999999999859e+02 2.082523899107955222e+05
1.290469999999999970e+02 2.097422894115905510e+05
1.270900000000000034e+02 2.089822560528121830e+05
1.251320000000000050e+02 2.102772899069160339e+05
1.231740000000000066e+02 2.111213710745682183e+05
1.212159999999999940e+02 2.105504995557687071e+05
1.192570000000000050e+02 2.093266953706725617e+05
1.172980000000000018e+02 2.096039385474654846e+05
1.153379999999999939e+02 2.081302491546680394e+05
1.133769999999999953e+02 2.045246272648469603e+05
1.114159999999999968e+02 2.044470528336705465e+05
1.094549999999999983e+02 2.074205258611388854e+05
1.074929999999999950e+02 2.076800665125897794e+05
1.055300000000000011e+02 2.035966748606640031e+05
1.035669999999999931e+02 1.954663307642372674e+05
1.016039999999999992e+02 1.889190342233096308e+05
9.963989999999999725e+01 1.843878075263610226e+05
9.767539999999999623e+01 1.832016365528247843e+05
9.571040000000000703e+01 1.839385233628698334e+05
9.374490000000000123e+01 1.866514679928720288e+05
9.177899999999999636e+01 1.881084684432890499e+05
8.981250000000000000e+01 1.858135288199434872e+05
8.784550000000000125e+01 1.850906471257377707e+05
8.587800000000000011e+01 1.860378233970848669e+05
8.390999999999999659e+01 1.854910576704069390e+05
8.194150000000000489e+01 1.800573499821354635e+05
7.997239999999999327e+01 1.741637024192094104e+05
7.800289999999999679e+01 1.715901109195128083e+05
7.603289999999999793e+01 1.697745775675732002e+05
7.406239999999999668e+01 1.651701023998589953e+05
7.209130000000000393e+01 1.541946875130725384e+05
7.011979999999999791e+01 1.343163288256847591e+05
6.814770000000000039e+01 1.091780304970754660e+05
6.617520000000000380e+01 8.166798843600154214e+04
6.420210000000000150e+01 5.510700681159635860e+04
6.222849999999999682e+01 3.472118359529430745e+04
6.025439999999999685e+01 2.125931882363052136e+04
5.827980000000000160e+01 1.232941253314935966e+04
