1.838160000000000082e+03 3.194536394993774593e+02
1.836589999999999918e+03 -2.836392626159358770e+02
1.835029999999999973e+03 1.262854792387865018e+03
1.833460000000000036e+03 3.903908564981538802e+02
1.831890000000000100e+03 2.407408110156538896e+02
1.830329999999999927e+03 -3.603187286637839861e+02
1.828759999999999991e+03 7.266019207937642932e+01
1.827190000000000055e+03 1.624530032296315767e+02
1.825619999999999891e+03 5.705970478709787130e+01
1.824049999999999955e+03 8.494802967517171055e+02
1.822490000000000009e+03 6.394973140260553919e+02
1.820920000000000073e+03 6.495468722163350321e+02
1.819349999999999909e+03 4.524103208137676120e+02
1.817779999999999973e+03 1.048087659818353131e+03
1.816210000000000036e+03 1.121578889230033383e+03
1.814640000000000100e+03 1.294884009048866574e+03
1.813069999999999936e+03 1.459003019274852704e+03
1.811490000000000009e+03 2.791145087125420105e+03
1.809920000000000073e+03 7.748906927542411722e+02
1.808349999999999909e+03 7.044501887902733870e+02
1.806779999999999973e+03 1.063823575233342126e+03
1.805210000000000036e+03 -2.149891479163197801e+02
1.803630000000000109e+03 6.352152519509545527e+02
1.802059999999999945e+03 1.680291242041275837e+02
1.800490000000000009e+03 -1.233431131356046535e+02
1.798910000000000082e+03 -5.117017912429291755e+02
1.797339999999999918e+03 -4.784474331797682680e+02
1.795769999999999982e+03 -1.351379184709512629e+03
1.794190000000000055e+03 -6.553009407914942130e+02
1.792619999999999891e+03 -3.626060969182872213e+02
1.791039999999999964e+03 -4.709036359706660733e+02
1.789470000000000027e+03 -7.625821966946823522e+02
1.787890000000000100e+03 -2.422555187173420563e+02
1.786309999999999945e+03 -1.247117328706139233e+03
1.784740000000000009e+03 -1.513565890315221623e+02
1.783160000000000082e+03 2.540581800928339362e+01
1.781579999999999927e+03 -6.902026291599031538e+01
1.780009999999999991e+03 8.501797771572018974e+02
1.778430000000000064e+03 7.033779132615891285e+02
1.776849999999999909e+03 2.713875613999553025e+02
1.775269999999999982e+03 1.462208721572125796e+03
1.773690000000000055e+03 9.348413937782170251e+02
1.772109999999999900e+03 1.042285578018287197e+03
1.770529999999999973e+03 1.716541274292219896e+03
1.768950000000000045e+03 1.785608482600073330e+03
1.767369999999999891e+03 1.290487202941847499e+03
1.765789999999999964e+03 1.283177435317484196e+03
1.764210000000000036e+03 1.676679179727099836e+03
1.762630000000000109e+03 1.526992436170578003e+03
1.761049999999999955e+03 2.236117204647976905e+03
1.759470000000000027e+03 7.180534851592965424e+02
1.757890000000000100e+03 1.380801277704536915e+03
1.756309999999999945e+03 4.873605822836980224e+02
1.754720000000000027e+03 6.288977025432395749e+02
1.753140000000000100e+03 3.910788382283644751e+02
1.751559999999999945e+03 1.252071485947468318e+03
1.749970000000000027e+03 2.050383629111456685e+02
1.748390000000000100e+03 -2.433471582637866959e+02
1.746799999999999955e+03 6.239156331925187260e+00
1.745220000000000027e+03 -1.415524533737043384e+03
1.743630000000000109e+03 -1.531878150938428007e+01
1.742049999999999955e+03 -1.224460640472243540e+03
1.740460000000000036e+03 -2.340635450612608111e+03
1.738880000000000109e+03 -6.801554784695326816e+02
1.737289999999999964e+03 -1.580710850977804512e+03
1.735710000000000036e+03 -1.508609047728707083e+03
1.734119999999999891e+03 -8.525449826050316915e+02
1.732529999999999973e+03 -1.171671798921481241e+03
1.730940000000000055e+03 -1.550989496678055730e+03
1.729359999999999900e+03 -1.505645224178675562e+03
1.727769999999999982e+03 -1.195343484303215519e+03
1.726180000000000064e+03 -1.177232625867880415e+03
1.724589999999999918e+03 -1.608312648872612044e+03
1.723000000000000000e+03 -1.242583553317468613e+03
1.721410000000000082e+03 -1.088045339202421019e+03
1.719819999999999936e+03 -1.324698006527469261e+03
1.718230000000000018e+03 -6.485415552926133387e+02
1.716640000000000100e+03 -9.355759854979114607e+02
1.715049999999999955e+03 -1.068801297143218108e+03
1.713460000000000036e+03 -3.582174902287079021e+02
1.711869999999999891e+03 -1.513824564754206222e+03
1.710279999999999973e+03 -1.144622520719887689e+03
1.708680000000000064e+03 -5.374798164802487008e+02
1.707089999999999918e+03 -5.066073583831894211e+01
1.705500000000000000e+03 -4.200325366364850197e+02
1.703910000000000082e+03 -7.965952188747760374e+02
1.702309999999999945e+03 5.137779494930873625e+02
1.700720000000000027e+03 1.028323038623784669e+02
1.699119999999999891e+03 4.868201002630521543e+02
1.697529999999999973e+03 4.764914912399835885e+02
1.695940000000000055e+03 4.389720007767900825e+02
1.694339999999999918e+03 1.127382343257922912e+03
1.692740000000000009e+03 1.435599395724129863e+03
1.691150000000000091e+03 7.165048599162255414e+02
1.689549999999999955e+03 1.533336540415300988e+03
1.687960000000000036e+03 1.890859041214978788e+03
1.686359999999999900e+03 2.257305349746835418e+03
1.684759999999999991e+03 2.273558368263766170e+03
1.683170000000000073e+03 1.087505823718733154e+03
1.681569999999999936e+03 2.639373470268503297e+03
1.679970000000000027e+03 2.576047826803318458e+03
1.678369999999999891e+03 1.700528893323324155e+03
1.676769999999999982e+03 2.119816669828316662e+03
1.675170000000000073e+03 5.279111563184706029e+02
1.673569999999999936e+03 7.828123527937277686e+02
1.671970000000000027e+03 1.369520259254088160e+03
1.670369999999999891e+03 1.528034875699551776e+03
1.668769999999999982e+03 9.993562021301186178e+02
1.667170000000000073e+03 1.000484238545759581e+03
1.665569999999999936e+03 9.334189849465619773e+02
1.663970000000000027e+03 8.921604413324093912e+02
1.662369999999999891e+03 2.590708607703418238e+03
1.660769999999999982e+03 8.000634840594721027e+02
1.659160000000000082e+03 2.487319222508813255e+03
1.657559999999999945e+03 1.368286310772527941e+03
1.655960000000000036e+03 8.606010902128764428e+01
1.654349999999999909e+03 1.207311376251745969e+02
1.652750000000000000e+03 1.174117147781595122e+03
1.651150000000000091e+03 7.493098679230897687e+02
1.649539999999999964e+03 -2.536038133184483740e+02
1.647940000000000055e+03 -1.065798881269351114e+03
1.646329999999999927e+03 1.148897225721128052e+03
1.644730000000000018e+03 -7.436856303221429698e+02
1.643119999999999891e+03 1.686202649003826082e+02
1.641509999999999991e+03 -2.922695535676321015e+02
1.639910000000000082e+03 3.845653042192279827e+02
1.638299999999999955e+03 8.632852739832887892e+02
1.636690000000000055e+03 1.998095300568384118e+02
1.635089999999999918e+03 -3.379378983261121903e+02
1.633480000000000018e+03 1.341961459794838447e+02
1.631869999999999891e+03 -9.548655234053148888e+02
1.630259999999999991e+03 -1.824122906480683014e+03
1.628650000000000091e+03 -1.366576003246533219e+03
1.627039999999999964e+03 -1.229224813702778192e+03
1.625430000000000064e+03 -1.635069337849563453e+03
1.623819999999999936e+03 -1.224109575686743483e+03
1.622210000000000036e+03 -2.606345527214463800e+03
1.620599999999999909e+03 -1.614777192432607990e+03
1.618990000000000009e+03 -3.053404571341292467e+03
1.617380000000000109e+03 -2.171227663940400817e+03
1.615769999999999982e+03 -2.883246470229991246e+03
1.614160000000000082e+03 -2.454460990210063756e+03
1.612549999999999955e+03 -3.027871223880589241e+03
1.610930000000000064e+03 -2.701419434670271585e+03
1.609319999999999936e+03 -3.199222311334713595e+03
1.607710000000000036e+03 -2.185220901689695893e+03
1.606089999999999918e+03 -3.012361123553069774e+03
1.604480000000000018e+03 -3.513752356901968597e+03
1.602859999999999900e+03 -3.228287660535657778e+03
1.601250000000000000e+03 -3.953071536878531333e+03
1.599630000000000109e+03 -3.160001922282535816e+03
1.598019999999999982e+03 -3.142178441619238583e+03
1.596400000000000091e+03 -2.792503908793558367e+03
1.594789999999999964e+03 -3.242073071124206763e+03
1.593170000000000073e+03 -4.384793620068812743e+03
1.591549999999999955e+03 -3.609712321480212267e+03
1.589940000000000055e+03 -2.854871056108269840e+03
1.588319999999999936e+03 -3.591184839289984666e+03
1.586700000000000045e+03 -3.683696774938551243e+03
1.585079999999999927e+03 -1.882406863053911366e+03
1.583470000000000027e+03 -3.377352099282841664e+03
1.581849999999999909e+03 -3.120457269168458879e+03
1.580230000000000018e+03 -2.861760591520986054e+03
1.578609999999999900e+03 -2.384262066340306774e+03
1.576990000000000009e+03 -1.316961693626479246e+03
1.575369999999999891e+03 -9.438594733794452623e+02
1.573750000000000000e+03 -2.138955405599321239e+03
1.572130000000000109e+03 -1.366249490286019864e+03
1.570500000000000000e+03 -1.041714517099841032e+03
1.568880000000000109e+03 -2.092406129883544054e+03
1.567259999999999991e+03 -1.090295895134098828e+03
1.565640000000000100e+03 -1.228383812851505354e+03
1.564019999999999982e+03 -9.586698830356472172e+02
1.562390000000000100e+03 -1.384133018714317586e+03
1.560769999999999982e+03 -2.468166169955511577e+02
1.559150000000000091e+03 5.313016322563344147e+02
1.557519999999999982e+03 2.147239138973352965e+03
1.555900000000000091e+03 3.901959860128205037e+03
1.554269999999999982e+03 2.863497384871006943e+03
1.552650000000000091e+03 6.008205779288255144e+02
1.551019999999999982e+03 7.789581206974689849e+02
1.549400000000000091e+03 9.518837856582249515e+02
1.547769999999999982e+03 1.299621346452680882e+03
1.546140000000000100e+03 5.161583009031019174e+02
1.544519999999999982e+03 5.374870621366426349e+02
1.542890000000000100e+03 3.566240346129052341e+02
1.541259999999999991e+03 5.795604007452493533e+02
1.539640000000000100e+03 3.592922582514875103e+02
1.538009999999999991e+03 1.184828642409614986e+03
1.536380000000000109e+03 1.384164420223736670e+03
1.534750000000000000e+03 8.032995916939107701e+02
1.533119999999999891e+03 2.113234156820108183e+03
1.531490000000000009e+03 1.170968115602299804e+03
1.529859999999999900e+03 1.663501468040572945e+03
1.528230000000000018e+03 1.661834214134782087e+03
1.526599999999999909e+03 7.939663538850727491e+02
1.524970000000000027e+03 1.353897887291386724e+03
1.523339999999999918e+03 2.087628814353724010e+03
1.521710000000000036e+03 2.362159135072055506e+03
1.520069999999999936e+03 1.962477983163291356e+03
1.518440000000000055e+03 2.205605860479903640e+03
1.516809999999999945e+03 1.567533131452568341e+03
1.515180000000000064e+03 2.164259796081227250e+03
1.513539999999999964e+03 2.521770057677349541e+03
1.511910000000000082e+03 1.664094278904289240e+03
1.510269999999999982e+03 2.037199628120753914e+03
1.508640000000000100e+03 1.754121405945974402e+03
1.507000000000000000e+03 1.579821842782810563e+03
1.505369999999999891e+03 1.981341177206340944e+03
1.503730000000000018e+03 8.666367016634903848e+02
1.502099999999999909e+03 2.267753592685301555e+03
1.500460000000000036e+03 2.219644204762822483e+03
1.498819999999999936e+03 1.334331741518428316e+03
1.497190000000000055e+03 1.916844352080777753e+03
1.495549999999999955e+03 8.161269764567550737e+02
1.493910000000000082e+03 1.707206525510817301e+03
1.492269999999999982e+03 2.030829992429935373e+02
1.490640000000000100e+03 1.707894922881387174e+02
1.489000000000000000e+03 -5.527389463593135588e+02
1.487359999999999900e+03 2.555295396713190712e+02
1.485720000000000027e+03 -1.784050496199633926e+02
1.484079999999999927e+03 5.174572857668681536e+02
1.482440000000000055e+03 -2.398834541682153940e+02
1.480799999999999955e+03 5.125727305748150684e+02
1.479160000000000082e+03 -1.114174160004069563e+03
1.477519999999999982e+03 -7.124125904840184376e+00
1.475869999999999891e+03 1.506785938602406532e+02
1.474230000000000018e+03 -2.976787609485327266e+02
1.472589999999999918e+03 -5.262391910791629925e+02
1.470950000000000045e+03 -4.850026965317083523e+02
1.469299999999999955e+03 -1.261018476925441064e+03
1.467660000000000082e+03 -1.849189371285960078e+03
1.466019999999999982e+03 -2.136563340968335979e+03
1.464369999999999891e+03 -2.373193307934794575e+03
1.462730000000000018e+03 -2.507974666525173234e+03
1.461079999999999927e+03 -1.714014506478299154e+03
1.459440000000000055e+03 -1.593203253976622364e+03
1.457789999999999964e+03 -2.160652966916415608e+03
1.456150000000000091e+03 -1.244249103322712472e+03
1.454500000000000000e+03 -9.921086892491730396e+02
1.452849999999999909e+03 -1.449173834576213267e+03
1.451210000000000036e+03 -9.003816734765423462e+02
1.449559999999999945e+03 -1.120856691790279001e+03
1.447910000000000082e+03 -1.059537269504653523e+03
1.446259999999999991e+03 -7.054234066195785999e+02
1.444609999999999900e+03 -8.495151031351415440e+02
1.442970000000000027e+03 -4.174327170159085654e+01
1.441319999999999936e+03 -2.582448412037920207e+02
1.439670000000000073e+03 2.704802989331074059e+01
1.438019999999999982e+03 5.521353415898920503e+02
1.436369999999999891e+03 5.020170938858645968e+02
1.434720000000000027e+03 -3.173067132188589312e+02
1.433059999999999945e+03 -2.291264196112751961e+01
1.431410000000000082e+03 5.535118631838122383e+01
1.429759999999999991e+03 -4.245905448026314843e+02
1.428109999999999900e+03 4.622621646757470444e+02
1.426460000000000036e+03 -3.580906852465122938e+02
1.424799999999999955e+03 -8.427318934295326471e+02
1.423150000000000091e+03 -5.704971079676179215e+02
1.421500000000000000e+03 5.965321180938044563e+02
1.419839999999999918e+03 6.602692409003502689e+02
1.418190000000000055e+03 -2.611138976540532894e+02
1.416529999999999973e+03 4.412083613572467584e+02
1.414880000000000109e+03 -5.658714181295363232e+01
1.413220000000000027e+03 -2.056797465968993492e+02
1.411569999999999936e+03 1.290112385617219843e+03
1.409910000000000082e+03 6.136049170379701536e+02
1.408259999999999991e+03 6.529846846363216173e+02
1.406599999999999909e+03 3.520623522618552670e+02
1.404940000000000055e+03 1.213931961307243910e+03
1.403279999999999973e+03 7.125935117726039607e+02
1.401630000000000109e+03 1.314147304324840661e+03
1.399970000000000027e+03 9.073939909949258436e+02
1.398309999999999945e+03 1.133432619084924227e+03
1.396650000000000091e+03 8.962631885947776027e+02
1.394990000000000009e+03 1.449885699524602387e+03
1.393329999999999927e+03 8.833001518743112683e+02
1.391670000000000073e+03 5.105065456438460387e+02
1.390009999999999991e+03 1.781504880833381321e+03
1.388349999999999909e+03 1.545295157442800701e+03
1.386690000000000055e+03 1.449877375472045969e+03
1.385029999999999973e+03 1.081251534921291750e+03
1.383369999999999891e+03 1.894417635790421627e+03
1.381700000000000045e+03 1.143260337033105316e+03
1.380039999999999964e+03 7.540090673771046568e+02
1.378380000000000109e+03 1.157549739140958991e+03
1.376710000000000036e+03 1.456763243633264210e+03
1.375049999999999955e+03 2.588865448720171116e+02
1.373390000000000100e+03 8.708017875306541100e+02
1.371720000000000027e+03 1.566386095272493549e+03
1.370059999999999945e+03 1.534883967406000011e+03
1.368390000000000100e+03 1.490048390342417406e+03
1.366730000000000018e+03 5.741288919508224353e+02
1.365059999999999945e+03 1.578873430081817787e+03
1.363390000000000100e+03 6.054073953524639364e+02
1.361730000000000018e+03 9.568612144906946924e+02
1.360059999999999945e+03 -5.140247050440520979e+02
1.358390000000000100e+03 7.168788025607937016e+02
1.356730000000000018e+03 6.167059392288792878e+02
1.355059999999999945e+03 1.112189562028332148e+03
1.353390000000000100e+03 1.254626119674067013e+02
1.351720000000000027e+03 3.965250890461611561e+02
1.350049999999999955e+03 2.293769932645373046e+02
1.348380000000000109e+03 2.540183246225351468e+02
1.346710000000000036e+03 8.954490831201546825e+02
1.345039999999999964e+03 3.976692687574541196e+02
1.343369999999999891e+03 -1.413211184656538535e+02
1.341700000000000045e+03 1.184779214508307632e+02
1.340029999999999973e+03 -3.859336114930047188e+02
1.338359999999999900e+03 5.704442827028105967e+02
1.336680000000000064e+03 5.704622711307019927e+02
1.335009999999999991e+03 -5.065822413095738739e+02
1.333339999999999918e+03 -1.983732661022804677e+01
1.331660000000000082e+03 -1.043456107975158375e+03
1.329990000000000009e+03 -7.831335999118746258e+02
1.328319999999999936e+03 -8.520216647089691833e+02
1.326640000000000100e+03 -1.026277215866721235e+03
1.324970000000000027e+03 -1.734587687299877871e+03
1.323289999999999964e+03 -1.401268174474709667e+03
1.321619999999999891e+03 -6.840010525439283811e+02
1.319940000000000055e+03 -1.550106475735927233e+03
1.318259999999999991e+03 -9.334250011693220586e+02
1.316589999999999918e+03 -9.207921196503157262e+02
1.314910000000000082e+03 -6.785355811008776072e+02
1.313230000000000018e+03 -3.574921447928063571e+02
1.311559999999999945e+03 1.005064963144250214e+02
1.309880000000000109e+03 -4.518750033946707845e+02
1.308200000000000045e+03 4.315303946548374370e+02
1.306519999999999982e+03 2.372269046292058192e+01
1.304839999999999918e+03 -5.329811597042134963e+01
1.303160000000000082e+03 5.094679753547825385e+02
1.301480000000000018e+03 1.840209644386195578e+02
1.299799999999999955e+03 8.136085128100239672e+01
1.298119999999999891e+03 4.714876358819601592e+02
1.296440000000000055e+03 1.224013182414928451e+02
1.294759999999999991e+03 1.055101898359600455e+03
1.293069999999999936e+03 8.354071160727471579e+02
1.291390000000000100e+03 4.186802232422633097e+02
1.289710000000000036e+03 1.628740228170412593e+03
1.288029999999999973e+03 1.215587130857107695e+03
1.286339999999999918e+03 6.510335897255572490e+02
1.284660000000000082e+03 1.750453019463660894e+03
1.282980000000000018e+03 5.126593469603685662e+02
1.281289999999999964e+03 1.749461417691258248e+03
1.279609999999999900e+03 1.488240272239432670e+03
1.277920000000000073e+03 1.151612325539870653e+03
1.276240000000000009e+03 8.929637071394536179e+02
1.274549999999999955e+03 1.829905743009556318e+03
1.272859999999999900e+03 2.150632132156373700e+03
1.271180000000000064e+03 2.762341670100169722e+03
1.269490000000000009e+03 2.906638041816593613e+03
1.267799999999999955e+03 2.825718766809761291e+03
1.266109999999999900e+03 3.630583845079672756e+03
1.264420000000000073e+03 3.015233276626269799e+03
1.262740000000000009e+03 3.092872229500120739e+03
1.261049999999999955e+03 3.265091643616353394e+03
1.259359999999999900e+03 3.769095411009329837e+03
1.257670000000000073e+03 3.002883531678991858e+03
1.255980000000000018e+03 3.870456005625455873e+03
1.254289999999999964e+03 3.425812832848634571e+03
1.252599999999999909e+03 3.292954013348557055e+03
1.250900000000000091e+03 3.493665446961938869e+03
1.249210000000000036e+03 4.198374057999229990e+03
1.247519999999999982e+03 3.934867022313264897e+03
1.245829999999999927e+03 3.317144339904043591e+03
1.244140000000000100e+03 4.472206010771536967e+03
1.242440000000000055e+03 5.450831547121546464e+03
1.240750000000000000e+03 5.641460648526437581e+03
1.239059999999999945e+03 6.876874103208072484e+03
1.237359999999999900e+03 7.112847587773459964e+03
1.235670000000000073e+03 7.243828472992405295e+03
1.233970000000000027e+03 8.104366828512545908e+03
1.232279999999999973e+03 7.425915144268918084e+03
1.230579999999999927e+03 9.100018370743782725e+03
1.228880000000000109e+03 8.700903390912746545e+03
1.227190000000000055e+03 8.637802214467112208e+03
1.225490000000000009e+03 8.380252105590858264e+03
1.223789999999999964e+03 9.566483790408761706e+03
1.222089999999999918e+03 1.014649726892076433e+04
1.220400000000000091e+03 1.086152967753366102e+04
1.218700000000000045e+03 1.132110802700041677e+04
1.217000000000000000e+03 1.232446817016130080e+04
1.215299999999999955e+03 1.233661010701628402e+04
1.213599999999999909e+03 1.352853383756539552e+04
1.211900000000000091e+03 1.371923936180857709e+04
1.210200000000000045e+03 1.389572667974591604e+04
1.208500000000000000e+03 1.447599579137738328e+04
1.206799999999999955e+03 1.466604669670297881e+04
1.205099999999999909e+03 1.577587939572270261e+04
1.203390000000000100e+03 1.538224391636459040e+04
1.201690000000000055e+03 1.657663891920604510e+04
1.199990000000000009e+03 1.673581571574159898e+04
1.198289999999999964e+03 1.697077430597131024e+04
1.196579999999999927e+03 1.807625957600679249e+04
1.194880000000000109e+03 1.856678047005817643e+04
1.193170000000000073e+03 1.967082546923201880e+04
1.191470000000000027e+03 1.944590866710519185e+04
1.189759999999999991e+03 2.163951339541733614e+04
1.188059999999999945e+03 2.141015889711224008e+04
1.186349999999999909e+03 2.161432335456274450e+04
1.184650000000000091e+03 2.186453116007935023e+04
1.182940000000000055e+03 2.396925534666818567e+04
1.181230000000000018e+03 2.346975875226774951e+04
1.179529999999999973e+03 2.438830937173374696e+04
1.177819999999999936e+03 2.560537250647164183e+04
1.176109999999999900e+03 2.586521486022026511e+04
1.174400000000000091e+03 2.659383643297955859e+04
1.172690000000000055e+03 2.676523722474958049e+04
1.170980000000000018e+03 2.762541723553035990e+04
1.169269999999999982e+03 2.768637646532186773e+04
1.167559999999999945e+03 2.789311491412407486e+04
1.165849999999999909e+03 2.916063258193701040e+04
1.164140000000000100e+03 3.009692946876061615e+04
1.162430000000000064e+03 3.032300557459497941e+04
1.160720000000000027e+03 3.109886089944007108e+04
1.159009999999999991e+03 3.253049544329586206e+04
1.157289999999999964e+03 3.307162442678704974e+04
1.155579999999999927e+03 3.347581611754739424e+04
1.153869999999999891e+03 3.401478702731846715e+04
1.152160000000000082e+03 3.493653715610021027e+04
1.150440000000000055e+03 3.548877655249938834e+04
1.148730000000000018e+03 3.633708382818571408e+04
1.147009999999999991e+03 3.571987778170523234e+04
1.145299999999999955e+03 3.767974220429611159e+04
1.143579999999999927e+03 3.737809071493597003e+04
1.141869999999999891e+03 3.871351228443140280e+04
1.140150000000000091e+03 3.947441535219160141e+04
1.138430000000000064e+03 4.000409504917837330e+04
1.136720000000000027e+03 4.012085169347215560e+04
1.135000000000000000e+03 4.196908594757929677e+04
1.133279999999999973e+03 4.129409683091298211e+04
1.131559999999999945e+03 4.150988434347318253e+04
1.129839999999999918e+03 4.229644848525989801e+04
1.128130000000000109e+03 4.354809606013968005e+04
1.126410000000000082e+03 4.411621475904679392e+04
1.124690000000000055e+03 4.521811008718039375e+04
1.122970000000000027e+03 4.573878204454056686e+04
1.121250000000000000e+03 4.612123063112728414e+04
1.119519999999999982e+03 4.717514254973758943e+04
1.117799999999999955e+03 4.778714309611008503e+04
1.116079999999999927e+03 4.878792027170909569e+04
1.114359999999999900e+03 4.845847407653465052e+04
1.112640000000000100e+03 4.906880451058672043e+04
1.110910000000000082e+03 4.955159177577553783e+04
1.109190000000000055e+03 5.052347416961344425e+04
1.107470000000000027e+03 5.063813319267786574e+04
1.105740000000000009e+03 5.157824514332675608e+04
1.104019999999999982e+03 5.131545612617698498e+04
1.102289999999999964e+03 5.164211743172671413e+04
1.100569999999999936e+03 5.217388037436266313e+04
1.098839999999999918e+03 5.261609103481320199e+04
1.097119999999999891e+03 5.324740593723498750e+04
1.095390000000000100e+03 5.314816595258633606e+04
1.093660000000000082e+03 5.379969999227926019e+04
1.091940000000000055e+03 5.366834218504605815e+04
1.090210000000000036e+03 5.276142557963979198e+04
1.088480000000000018e+03 5.549728299857513048e+04
1.086750000000000000e+03 5.554191444185201544e+04
1.085019999999999982e+03 5.566631990947044687e+04
1.083299999999999955e+03 5.559984005370078376e+04
1.081569999999999936e+03 5.643179487622005399e+04
1.079839999999999918e+03 5.601352372308087070e+04
1.078109999999999900e+03 5.769802659428329207e+04
1.076369999999999891e+03 5.634295761268629576e+04
1.074640000000000100e+03 5.811000722635412239e+04
1.072910000000000082e+03 5.829583086436355370e+04
1.071180000000000064e+03 5.774342852671456058e+04
1.069450000000000045e+03 5.833580021340714302e+04
1.067720000000000027e+03 5.889894592444130103e+04
1.065980000000000018e+03 5.959051193781953771e+04
1.064250000000000000e+03 5.929920439131913008e+04
1.062509999999999991e+03 5.968031452717710636e+04
1.060779999999999973e+03 5.925555372314216220e+04
1.059049999999999955e+03 6.055356694344879361e+04
1.057309999999999945e+03 6.099299391991033917e+04
1.055579999999999927e+03 6.127255388268243405e+04
1.053839999999999918e+03 6.153452498162370466e+04
1.052099999999999909e+03 6.296626748492079787e+04
1.050369999999999891e+03 6.170714690828224411e+04
1.048630000000000109e+03 6.228943353405898961e+04
1.046890000000000100e+03 6.343449156419161591e+04
1.045150000000000091e+03 6.305032099868005025e+04
1.043420000000000073e+03 6.297229260075473576e+04
1.041680000000000064e+03 6.372966615772288060e+04
1.039940000000000055e+03 6.416981111904684803e+04
1.038200000000000045e+03 6.409572748472663807e+04
1.036460000000000036e+03 6.498841525476223615e+04
1.034720000000000027e+03 6.451387442915365682e+04
1.032980000000000018e+03 6.340410500790091464e+04
1.031240000000000009e+03 6.389310699100396596e+04
1.029500000000000000e+03 6.500488037846285442e+04
1.027750000000000000e+03 6.451204258313452010e+04
1.026009999999999991e+03 6.527535746553697390e+04
1.024269999999999982e+03 6.481344375229525031e+04
1.022529999999999973e+03 6.460030144340934930e+04
1.020779999999999973e+03 6.485254268911352847e+04
1.019039999999999964e+03 6.576494187517120736e+04
1.017299999999999955e+03 6.583611246558470884e+04
1.015549999999999955e+03 6.486766266173367330e+04
1.013809999999999945e+03 6.587637474709074013e+04
1.012059999999999945e+03 6.642046380309674714e+04
1.010320000000000050e+03 6.533171738339736476e+04
1.008570000000000050e+03 6.602734529926042887e+04
1.006820000000000050e+03 6.535974198439276370e+04
1.005080000000000041e+03 6.578130715022471850e+04
1.003330000000000041e+03 6.491924269521411043e+04
1.001580000000000041e+03 6.517794700947278761e+04
9.998319999999999936e+02 6.470610082717184559e+04
9.980839999999999463e+02 6.450802394236557302e+04
9.963350000000000364e+02 6.426487572404443927e+04
9.945850000000000364e+02 6.441165577603952261e+04
9.928350000000000364e+02 6.390920459730386210e+04
9.910850000000000364e+02 6.363452218783748685e+04
9.893350000000000364e+02 6.265560854764041142e+04
9.875839999999999463e+02 6.318462238496844657e+04
9.858319999999999936e+02 6.273056330319949484e+04
9.840810000000000173e+02 6.255111401818033482e+04
9.823279999999999745e+02 6.265274986098126101e+04
9.805760000000000218e+02 6.153699550053194980e+04
9.788229999999999791e+02 6.123516742728858662e+04
9.770689999999999600e+02 6.073526524417605833e+04
9.753160000000000309e+02 5.923897299017164914e+04
9.735620000000000118e+02 5.916960636150589562e+04
9.718070000000000164e+02 5.862216496087715495e+04
9.700520000000000209e+02 5.812249100631164038e+04
9.682970000000000255e+02 5.771658449780938099e+04
9.665410000000000537e+02 5.695160255479731131e+04
9.647849999999999682e+02 5.553738779275423440e+04
9.630280000000000200e+02 5.555209706586188986e+04
9.612709999999999582e+02 5.465957325469328498e+04
9.595140000000000100e+02 5.424381635924843431e+04
9.577559999999999718e+02 5.443798283565245220e+04
9.559980000000000473e+02 5.453091596238393686e+04
9.542390000000000327e+02 5.353077193002079730e+04
9.524800000000000182e+02 5.248339428243791917e+04
9.507210000000000036e+02 5.259278301963525882e+04
9.489610000000000127e+02 5.170809393368102610e+04
9.472000000000000455e+02 5.125532662591458939e+04
9.454400000000000546e+02 5.000916964523743081e+04
9.436789999999999736e+02 4.924993417689879425e+04
9.419170000000000300e+02 4.865461982201150386e+04
9.401549999999999727e+02 4.916807105435662379e+04
9.383930000000000291e+02 4.785328787393416860e+04
9.366309999999999718e+02 4.758827028074412374e+04
9.348680000000000518e+02 4.636417300277805771e+04
9.331040000000000418e+02 4.596599564069579355e+04
9.313400000000000318e+02 4.506358333339235105e+04
9.295760000000000218e+02 4.356293608086775930e+04
9.278110000000000355e+02 4.330420807828244870e+04
9.260460000000000491e+02 4.268624486402265029e+04
9.242809999999999491e+02 4.248404643808840774e+04
9.225149999999999864e+02 4.066776659577139071e+04
9.207480000000000473e+02 4.019640493705193512e+04
9.189819999999999709e+02 3.901465400483745907e+04
9.172150000000000318e+02 3.851582098946519545e+04
9.154470000000000027e+02 3.804990549068890687e+04
9.136789999999999736e+02 3.628075397997218533e+04
9.119109999999999445e+02 3.567936645731503086e+04
9.101420000000000528e+02 3.519089578379924933e+04
9.083730000000000473e+02 3.418418883128570451e+04
9.066029999999999518e+02 3.290439819364791038e+04
9.048329999999999700e+02 3.169137100980394462e+04
9.030629999999999882e+02 3.099510727975387999e+04
9.012920000000000300e+02 3.082975919636989420e+04
8.995209999999999582e+02 2.931317429942046874e+04
8.977490000000000236e+02 2.850750451426740619e+04
8.959769999999999754e+02 2.817959764803849976e+04
8.942050000000000409e+02 2.702645370073374943e+04
8.924320000000000164e+02 2.626222419626073679e+04
8.906589999999999918e+02 2.533575734305052902e+04
8.888849999999999909e+02 2.491620439719827846e+04
8.871109999999999900e+02 2.400441383479646174e+04
8.853360000000000127e+02 2.314153664397686953e+04
8.835620000000000118e+02 2.254327071453195822e+04
8.817859999999999445e+02 2.218306860879878514e+04
8.800109999999999673e+02 2.191647776444029296e+04
8.782340000000000373e+02 2.115694993945035094e+04
8.764579999999999700e+02 2.040703337583511893e+04
8.746810000000000400e+02 2.032802884323013132e+04
8.729039999999999964e+02 2.066478588973240403e+04
8.711259999999999764e+02 2.046445443056311342e+04
8.693479999999999563e+02 2.025488428208466212e+04
8.675689999999999600e+02 1.995522509095084388e+04
8.657899999999999636e+02 2.022532694194043870e+04
8.640109999999999673e+02 1.931418983505347569e+04
8.622309999999999945e+02 1.894496301390383451e+04
8.604510000000000218e+02 1.917549696615918947e+04
8.586699999999999591e+02 1.968694066656402720e+04
8.568890000000000100e+02 1.938214487150442437e+04
8.551069999999999709e+02 1.988825828670444025e+04
8.533250000000000455e+02 2.030413193741955911e+04
8.515430000000000064e+02 2.056476582364982460e+04
8.497599999999999909e+02 2.048430824739986565e+04
8.479769999999999754e+02 2.126961063749356254e+04
8.461939999999999600e+02 2.203567299393095891e+04
8.444099999999999682e+02 2.331464321477072372e+04
8.426259999999999764e+02 2.342537313263170654e+04
8.408410000000000082e+02 2.499001037609914783e+04
8.390560000000000400e+02 2.600840704711436410e+04
8.372699999999999818e+02 2.672171050463811844e+04
8.354840000000000373e+02 2.788377312008515582e+04
8.336970000000000027e+02 2.907574198264075676e+04
8.319109999999999445e+02 3.033832277908441029e+04
8.301230000000000473e+02 3.158595637219544733e+04
8.283360000000000127e+02 3.329720189919453696e+04
8.265480000000000018e+02 3.412035286374924181e+04
8.247590000000000146e+02 3.541340886085659440e+04
8.229700000000000273e+02 3.621622320610779570e+04
8.211810000000000400e+02 3.716979589950283116e+04
8.193909999999999627e+02 3.885327295006802888e+04
8.176009999999999991e+02 3.880750807854856248e+04
8.158099999999999454e+02 3.950564702359124203e+04
8.140190000000000055e+02 4.044754377616973943e+04
8.122279999999999518e+02 4.086419833628408378e+04
8.104360000000000355e+02 4.228575603682301880e+04
8.086440000000000055e+02 4.309007127436727751e+04
8.068509999999999991e+02 4.399528911112410424e+04
8.050579999999999927e+02 4.429026421420474071e+04
8.032649999999999864e+02 4.527799658360912872e+04
8.014710000000000036e+02 4.514163087533353246e+04
7.996760000000000446e+02 4.660416668301587924e+04
7.978819999999999482e+02 4.658131483026879141e+04
7.960860000000000127e+02 4.694950847190372588e+04
7.942910000000000537e+02 4.702131445310922572e+04
7.924950000000000045e+02 4.795802113709552214e+04
7.906979999999999791e+02 4.796762811704757041e+04
7.889020000000000437e+02 4.775984757217517472e+04
7.871040000000000418e+02 4.782411062321446661e+04
7.853070000000000164e+02 4.735998614942934364e+04
7.835090000000000146e+02 4.814776115752675105e+04
7.817100000000000364e+02 4.829143524023864302e+04
7.799109999999999445e+02 4.760086496201397676e+04
7.781119999999999663e+02 4.742905032285281050e+04
7.763120000000000118e+02 4.807713407914838172e+04
7.745119999999999436e+02 4.786797320276887331e+04
7.727110000000000127e+02 4.825271017821793794e+04
7.709099999999999682e+02 4.811920224910232355e+04
7.691090000000000373e+02 4.819144941542201559e+04
7.673070000000000164e+02 4.763759375365756568e+04
7.655040000000000191e+02 4.750263485563485301e+04
7.637019999999999982e+02 4.766428870460180042e+04
7.618990000000000009e+02 4.754083904511884612e+04
7.600950000000000273e+02 4.705728546878535417e+04
7.582910000000000537e+02 4.828048617131233914e+04
7.564869999999999663e+02 4.792644115269985923e+04
7.546820000000000164e+02 4.774129153619153658e+04
7.528769999999999527e+02 4.851289592605009966e+04
7.510710000000000264e+02 4.754039517287455965e+04
7.492649999999999864e+02 4.739464815342129441e+04
7.474579999999999700e+02 4.828779544549368438e+04
7.456509999999999536e+02 4.796669619849270384e+04
7.438440000000000509e+02 4.818535041241830913e+04
7.420359999999999445e+02 4.863089825569177628e+04
7.402279999999999518e+02 4.801819928694520786e+04
7.384189999999999827e+02 4.867239340150213684e+04
7.366100000000000136e+02 4.817834043094141816e+04
7.348010000000000446e+02 4.814404037526302272e+04
7.329909999999999854e+02 4.897263271995527612e+04
7.311810000000000400e+02 4.875697770628117723e+04
7.293700000000000045e+02 4.947721454632941459e+04
7.275589999999999691e+02 4.946420375461166259e+04
7.257469999999999573e+02 4.938908426966586558e+04
7.239349999999999454e+02 4.963571687940342235e+04
7.221230000000000473e+02 4.983210158382427471e+04
7.203099999999999454e+02 5.010537691095168702e+04
7.184969999999999573e+02 5.072140405906076194e+04
7.166829999999999927e+02 5.103332128232196555e+04
7.148690000000000282e+02 5.081999005271214992e+04
7.130539999999999736e+02 5.158754835039810860e+04
7.112390000000000327e+02 5.160585792120933183e+04
7.094239999999999782e+02 5.222291876514581963e+04
7.076079999999999472e+02 5.236386845118008205e+04
7.057920000000000300e+02 5.306356913618490216e+04
7.039750000000000227e+02 5.330315811482707795e+04
7.021580000000000155e+02 5.333949781813411391e+04
7.003400000000000318e+02 5.301372526631606161e+04
6.985220000000000482e+02 5.285270316470613761e+04
6.967039999999999509e+02 5.424043151330435649e+04
6.948849999999999909e+02 5.501904692044691183e+04
6.930660000000000309e+02 5.475741250318987295e+04
6.912459999999999809e+02 5.465666459511074936e+04
6.894260000000000446e+02 5.490866658787327469e+04
6.876059999999999945e+02 5.493441848147746350e+04
6.857849999999999682e+02 5.642405619717396621e+04
6.839629999999999654e+02 5.591657932248488942e+04
6.821420000000000528e+02 5.570971615255257348e+04
6.803189999999999600e+02 5.657087362572022539e+04
6.784969999999999573e+02 5.694764480364465271e+04
6.766730000000000018e+02 5.731243579903370119e+04
6.748500000000000227e+02 5.695484049917956872e+04
6.730259999999999536e+02 5.809412923288106686e+04
6.712019999999999982e+02 5.826816676687919244e+04
6.693769999999999527e+02 5.880808778355640243e+04
6.675520000000000209e+02 5.860175732501648599e+04
6.657259999999999991e+02 5.951330979797709733e+04
6.638999999999999773e+02 6.011561052005579404e+04
6.620729999999999791e+02 6.064079362215443689e+04
6.602459999999999809e+02 6.141172469755538623e+04
6.584189999999999827e+02 6.230740374625861295e+04
6.565910000000000082e+02 6.277396448525357118e+04
6.547630000000000337e+02 6.354027292158400815e+04
6.529339999999999691e+02 6.332346249612157408e+04
6.511050000000000182e+02 6.476539949187681486e+04
6.492749999999999773e+02 6.485221707345255709e+04
6.474450000000000500e+02 6.651878179997716506e+04
6.456150000000000091e+02 6.800209367145065335e+04
6.437839999999999918e+02 6.852028543788383831e+04
6.419529999999999745e+02 6.942822407284607471e+04
6.401209999999999809e+02 6.999804204977734480e+04
6.382889999999999873e+02 7.215360661866684677e+04
6.364560000000000173e+02 7.319804997623272357e+04
6.346230000000000473e+02 7.418523964903497836e+04
6.327899999999999636e+02 7.471417563707362569e+04
6.309560000000000173e+02 7.721298972179528209e+04
6.291219999999999573e+02 7.810254984488050104e+04
6.272870000000000346e+02 8.040098751075202017e+04
6.254519999999999982e+02 8.180517093796323752e+04
6.236159999999999854e+02 8.270823135376206483e+04
6.217799999999999727e+02 8.539803725372570625e+04
6.199439999999999600e+02 8.613258863785417634e+04
6.181069999999999709e+02 8.843501631744434417e+04
6.162690000000000055e+02 9.128231987639414729e+04
6.144320000000000164e+02 9.331923783096153056e+04
6.125929999999999609e+02 9.526716178237998975e+04
6.107549999999999955e+02 9.831970012941601453e+04
6.089160000000000537e+02 1.006531135231545486e+05
6.070760000000000218e+02 1.028884015470404847e+05
6.052359999999999900e+02 1.053054339448817336e+05
6.033959999999999582e+02 1.075072107166782807e+05
6.015549999999999500e+02 1.106248614239862363e+05
5.997140000000000555e+02 1.117852562273195945e+05
5.978719999999999573e+02 1.149435244101535936e+05
5.960299999999999727e+02 1.164245364109320508e+05
5.941870000000000118e+02 1.192084212348982983e+05
5.923440000000000509e+02 1.212170495985771413e+05
5.905009999999999764e+02 1.229634215019685507e+05
5.886570000000000391e+02 1.241076655327791959e+05
5.868120000000000118e+02 1.248067812733214523e+05
5.849679999999999609e+02 1.285775116875621898e+05
5.831219999999999573e+02 1.298732417027931078e+05
5.812770000000000437e+02 1.303585863917224924e+05
5.794310000000000400e+02 1.323678019545552088e+05
5.775839999999999463e+02 1.320608879731505294e+05
5.757369999999999663e+02 1.348067164170206815e+05
5.738899999999999864e+02 1.354222872861656651e+05
5.720420000000000300e+02 1.363477279137946607e+05
5.701939999999999600e+02 1.366849106877115264e+05
5.683450000000000273e+02 1.371249626619874616e+05
5.664959999999999809e+02 1.384877565034133440e+05
5.646459999999999582e+02 1.390014189867713430e+05
5.627960000000000491e+02 1.393958230579902884e+05
5.609460000000000264e+02 1.405399687170701800e+05
5.590950000000000273e+02 1.429019823196710495e+05
5.572430000000000518e+02 1.435008634465196519e+05
5.553909999999999627e+02 1.456644856021982268e+05
5.535389999999999873e+02 1.475238487867067743e+05
5.516870000000000118e+02 1.480499530000452942e+05
5.498329999999999700e+02 1.512380495549748885e+05
5.479800000000000182e+02 1.540497610627409013e+05
5.461259999999999764e+02 1.551213386960447242e+05
5.442709999999999582e+02 1.577597820349335088e+05
5.424160000000000537e+02 1.602429655629732879e+05
5.405610000000000355e+02 1.632158892801640322e+05
5.387050000000000409e+02 1.666096780026410124e+05
5.368490000000000464e+02 1.708272066340739548e+05
5.349919999999999618e+02 1.738345997102520778e+05
5.331349999999999909e+02 1.777367324150400818e+05
5.312780000000000200e+02 1.811966047484380542e+05
5.294199999999999591e+02 1.848273408255273825e+05
5.275610000000000355e+02 1.903879402254492743e+05
5.257019999999999982e+02 1.942322786928360001e+05
5.238429999999999609e+02 1.990333562276875891e+05
5.219829999999999472e+02 2.028042963835628470e+05
5.201230000000000473e+02 2.071489753261039150e+05
5.182619999999999436e+02 2.096165163279195840e+05
5.164009999999999536e+02 2.147317958354509901e+05
5.145399999999999636e+02 2.184568138486981625e+05
5.126779999999999973e+02 2.218226932186559716e+05
5.108149999999999977e+02 2.254334335235596518e+05
5.089519999999999982e+02 2.276909117718259222e+05
5.070889999999999986e+02 2.290471279634548118e+05
5.052250000000000227e+02 2.336432043867105967e+05
5.033609999999999900e+02 2.321830184719258978e+05
5.014959999999999809e+02 2.362526922258109262e+05
4.996309999999999718e+02 2.359741033601013769e+05
4.977649999999999864e+02 2.386103735998023767e+05
4.958990000000000009e+02 2.394753809382037143e+05
4.940330000000000155e+02 2.415201253753054189e+05
4.921659999999999968e+02 2.403197282133661502e+05
4.902989999999999782e+02 2.409450678682711441e+05
4.884309999999999832e+02 2.413702653602719074e+05
4.865629999999999882e+02 2.414561993871098384e+05
4.846940000000000168e+02 2.420979906868783582e+05
4.828249999999999886e+02 2.417505182393259020e+05
4.809549999999999841e+02 2.415979025002367562e+05
4.790849999999999795e+02 2.408270227315174998e+05
4.772139999999999986e+02 2.402819991064923524e+05
4.753430000000000177e+02 2.391037111693769111e+05
4.734719999999999800e+02 2.389061589201712632e+05
4.716000000000000227e+02 2.361014621083205566e+05
4.697280000000000086e+02 2.369005007017684984e+05
4.678550000000000182e+02 2.351303941671981011e+05
4.659820000000000277e+02 2.344060227551641874e+05
4.641080000000000041e+02 2.333445056494366145e+05
4.622339999999999804e+02 2.317067233833323698e+05
4.603589999999999804e+02 2.298267948575571645e+05
4.584839999999999804e+02 2.284696008883411123e+05
4.566089999999999804e+02 2.287581414756841841e+05
4.547330000000000041e+02 2.270605350955071044e+05
4.528570000000000277e+02 2.259766629886740120e+05
4.509800000000000182e+02 2.235806433477394166e+05
4.491019999999999754e+02 2.221604757475408260e+05
4.472250000000000227e+02 2.209219239448409644e+05
4.453460000000000036e+02 2.186333416665254335e+05
4.434680000000000177e+02 2.169073751857086027e+05
4.415889999999999986e+02 2.144922598948496743e+05
4.397090000000000032e+02 2.122589953683331260e+05
4.378290000000000077e+02 2.119344639807897620e+05
4.359490000000000123e+02 2.104826657322195824e+05
4.340679999999999836e+02 2.081007175382549758e+05
4.321859999999999786e+02 2.070036189728273894e+05
4.303050000000000068e+02 2.041141363468458585e+05
4.284220000000000255e+02 2.035886195546174422e+05
4.265389999999999873e+02 2.002828350489985605e+05
4.246560000000000059e+02 2.004747828299891844e+05
4.227730000000000246e+02 1.983544628975893138e+05
4.208890000000000100e+02 1.967169911723653204e+05
4.190040000000000191e+02 1.954233672275691060e+05
4.171190000000000282e+02 1.954894750003849040e+05
4.152330000000000041e+02 1.940204299843289482e+05
4.133469999999999800e+02 1.906661164011598157e+05
4.114610000000000127e+02 1.907475342508774484e+05
4.095740000000000123e+02 1.901957985997214273e+05
4.076870000000000118e+02 1.900387940965759626e+05
4.057989999999999782e+02 1.885096355226533196e+05
4.039110000000000014e+02 1.877322078117139463e+05
4.020219999999999914e+02 1.860376254597918596e+05
4.001329999999999814e+02 1.839537736856747651e+05
3.982429999999999950e+02 1.839027667000673828e+05
3.963530000000000086e+02 1.840094900069357245e+05
3.944630000000000223e+02 1.830519436062797613e+05
3.925720000000000027e+02 1.826332412806215580e+05
3.906800000000000068e+02 1.818073826016274106e+05
3.887880000000000109e+02 1.804432536439973919e+05
3.868960000000000150e+02 1.797588544077314727e+05
3.850029999999999859e+02 1.789602981038626167e+05
3.831100000000000136e+02 1.786894712355755619e+05
3.812160000000000082e+02 1.783214867279699538e+05
3.793220000000000027e+02 1.785622313700128288e+05
3.774270000000000209e+02 1.773998178007195238e+05
3.755319999999999823e+02 1.769881330949903640e+05
3.736370000000000005e+02 1.768591772528253496e+05
3.717400000000000091e+02 1.760621746935491683e+05
3.698439999999999941e+02 1.756757883588218247e+05
3.679470000000000027e+02 1.738842425246615312e+05
3.660489999999999782e+02 1.742555367613755807e+05
3.641519999999999868e+02 1.739714473658693605e+05
3.622529999999999859e+02 1.738643092480190680e+05
3.603539999999999850e+02 1.729598988478855463e+05
3.584549999999999841e+02 1.723492161654688243e+05
3.565550000000000068e+02 1.719923722638665640e+05
3.546549999999999727e+02 1.727462557931417541e+05
3.527540000000000191e+02 1.717879775294016581e+05
3.508530000000000086e+02 1.719714264095486142e+05
3.489510000000000218e+02 1.713977129225485551e+05
3.470489999999999782e+02 1.704827262922941882e+05
3.451469999999999914e+02 1.696594665187854844e+05
3.432440000000000282e+02 1.703180436600875692e+05
3.413399999999999750e+02 1.693244572851486155e+05
3.394359999999999786e+02 1.683365971922195458e+05
3.375319999999999823e+02 1.685024633813003893e+05
3.356270000000000095e+02 1.677711653353429283e+05
3.337219999999999800e+02 1.670575932838009612e+05
3.318159999999999741e+02 1.659678564218808897e+05
3.299089999999999918e+02 1.652149543178513413e+05
3.280029999999999859e+02 1.660766687253609998e+05
3.260950000000000273e+02 1.651233263661132660e+05
3.241879999999999882e+02 1.647276005184047681e+05
3.222799999999999727e+02 1.648827085646710184e+05
3.203709999999999809e+02 1.656916500727276434e+05
3.184619999999999891e+02 1.639103164233120624e+05
3.165520000000000209e+02 1.652388156591389852e+05
3.146419999999999959e+02 1.644040394491443003e+05
3.127320000000000277e+02 1.641199877933279786e+05
3.108210000000000264e+02 1.635027683016918018e+05
3.089089999999999918e+02 1.631723805413718219e+05
3.069970000000000141e+02 1.641527167580783134e+05
3.050849999999999795e+02 1.635197769518113055e+05
3.031720000000000255e+02 1.626706681550430949e+05
3.012590000000000146e+02 1.626532830464988947e+05
2.993450000000000273e+02 1.612447283696975792e+05
2.974300000000000068e+02 1.617110036910956551e+05
2.955160000000000196e+02 1.606318956683209108e+05
2.936000000000000227e+02 1.600637236643899814e+05
2.916850000000000023e+02 1.606741683162862610e+05
2.897690000000000055e+02 1.585184420988419733e+05
2.878519999999999754e+02 1.572105445780606824e+05
2.859350000000000023e+02 1.583173695887834474e+05
2.840169999999999959e+02 1.575310227172051964e+05
2.820989999999999895e+02 1.570703980875735288e+05
2.801800000000000068e+02 1.566666009963748220e+05
2.782610000000000241e+02 1.561275258574141772e+05
2.763419999999999845e+02 1.564201726706915942e+05
2.744220000000000255e+02 1.559106462979419448e+05
2.725009999999999764e+02 1.548229463042626739e+05
2.705799999999999841e+02 1.549649676829514210e+05
2.686589999999999918e+02 1.548867104340082151e+05
2.667370000000000232e+02 1.539882788389202906e+05
2.648149999999999977e+02 1.530985683260388905e+05
2.628919999999999959e+02 1.531746828865387070e+05
2.609689999999999941e+02 1.538215182389324764e+05
2.590450000000000159e+02 1.522071780839313869e+05
2.571209999999999809e+02 1.525485584303607175e+05
2.551959999999999980e+02 1.518637626883170742e+05
2.532709999999999866e+02 1.526976871570892690e+05
2.513449999999999989e+02 1.528114349560083647e+05
2.494190000000000111e+02 1.528589026749777549e+05
2.474919999999999902e+02 1.519281931424119102e+05
2.455649999999999977e+02 1.526682032389797969e+05
2.436370000000000005e+02 1.527460355020282732e+05
2.417090000000000032e+02 1.523905871031428687e+05
2.397800000000000011e+02 1.528179602884519263e+05
2.378509999999999991e+02 1.529800525206085294e+05
2.359219999999999970e+02 1.530928637996126490e+05
2.339919999999999902e+02 1.545154959345759999e+05
2.320610000000000070e+02 1.541409484883309051e+05
2.301299999999999955e+02 1.538041195060431492e+05
2.281990000000000123e+02 1.536820089877127321e+05
2.262669999999999959e+02 1.545987181591836270e+05
2.243340000000000032e+02 1.549362465828351269e+05
2.224010000000000105e+02 1.547104928869497089e+05
2.204679999999999893e+02 1.538614570715274313e+05
2.185339999999999918e+02 1.550132397785404464e+05
2.165999999999999943e+02 1.536097400740429293e+05
2.146649999999999920e+02 1.539800583078824566e+05
2.127299999999999898e+02 1.538770938380868174e+05
2.107940000000000111e+02 1.548979467222279636e+05
2.088569999999999993e+02 1.546406165217791568e+05
2.069209999999999923e+02 1.539849032679231022e+05
2.049830000000000041e+02 1.541821062558691483e+05
2.030449999999999875e+02 1.545460256629000942e+05
2.011069999999999993e+02 1.548276614890159108e+05
1.991680000000000064e+02 1.539861129139800614e+05
1.972290000000000134e+02 1.545012804653004277e+05
1.952899999999999920e+02 1.542081641429769807e+05
1.933489999999999895e+02 1.540779614278976514e+05
1.914089999999999918e+02 1.542723756594111037e+05
1.894670000000000130e+02 1.543657026190765901e+05
1.875260000000000105e+02 1.549316465253347997e+05
1.855840000000000032e+02 1.563124041261572274e+05
1.836409999999999911e+02 1.551519749816580152e+05
1.816980000000000075e+02 1.554002607910902589e+05
1.797539999999999907e+02 1.560073592683844909e+05
1.778100000000000023e+02 1.570491724061264831e+05
1.758650000000000091e+02 1.572747976246120234e+05
1.739199999999999875e+02 1.578501372099106084e+05
1.719749999999999943e+02 1.576831911620222381e+05
1.700289999999999964e+02 1.588540564606018888e+05
1.680819999999999936e+02 1.601457326648577000e+05
1.661349999999999909e+02 1.594841226482040947e+05
1.641870000000000118e+02 1.619883229492022074e+05
1.622390000000000043e+02 1.612742367352031579e+05
1.602909999999999968e+02 1.624098640062069753e+05
1.583420000000000130e+02 1.632693008594544081e+05
1.563919999999999959e+02 1.648695468534740503e+05
1.544420000000000073e+02 1.658825057438680669e+05
1.524919999999999902e+02 1.659711775306364289e+05
1.505409999999999968e+02 1.651596577220138570e+05
1.485889999999999986e+02 1.663669458760760026e+05
1.466370000000000005e+02 1.657869463372799510e+05
1.446850000000000023e+02 1.662386591056257312e+05
1.427319999999999993e+02 1.673711790997380158e+05
1.407779999999999916e+02 1.707055058772393968e+05
1.388240000000000123e+02 1.712775443720460171e+05
1.368700000000000045e+02 1.695952945841579349e+05
1.349149999999999920e+02 1.700138508419856953e+05
1.329590000000000032e+02 1.705962127026988892e+05
1.310029999999999859e+02 1.721802856902767671e+05
1.290469999999999970e+02 1.735040698047193000e+05
1.270900000000000034e+02 1.733666587836189719e+05
1.251320000000000050e+02 1.748210521836923726e+05
1.231740000000000066e+02 1.746741561195857939e+05
1.212159999999999940e+02 1.740609705912992940e+05
1.192570000000000050e+02 1.729965887450031587e+05
1.172980000000000018e+02 1.736529171387782553e+05
1.153379999999999939e+02 1.717920486228950904e+05
1.133769999999999953e+02 1.696039827533906791e+05
1.114159999999999968e+02 1.681996265320068051e+05
1.094549999999999983e+02 1.726379799587434973e+05
1.074929999999999950e+02 1.731091352915430325e+05
1.055300000000000011e+02 1.688060920859894541e+05
1.035669999999999931e+02 1.602427579360017262e+05
1.016039999999999992e+02 1.536431328415798489e+05
9.963989999999999725e+01 1.495613176342307706e+05
9.767539999999999623e+01 1.485752477629459754e+05
9.571040000000000703e+01 1.489019321865601523e+05
9.374490000000000123e+01 1.516953706825254776e+05
9.177899999999999636e+01 1.525495539210943680e+05
8.981250000000000000e+01 1.510204999087400502e+05
8.784550000000000125e+01 1.506181993007575802e+05
8.587800000000000011e+01 1.517866518743726483e+05
8.390999999999999659e+01 1.518148574067543668e+05
8.194150000000000489e+01 1.474408156750151538e+05
7.997239999999999327e+01 1.416885354742103664e+05
7.800289999999999679e+01 1.405059985304696602e+05
7.603289999999999793e+01 1.394122136536018515e+05
7.406239999999999668e+01 1.371631806204928434e+05
7.209130000000000393e+01 1.277849081664661644e+05
7.011979999999999791e+01 1.110643781364205497e+05
6.814770000000000039e+01 8.878870820916647790e+04
6.617520000000000380e+01 6.418188028903336090e+04
6.420210000000000150e+01 4.138051199515940971e+04
6.222849999999999682e+01 2.412509417536104229e+04
6.025439999999999685e+01 1.296592660611648171e+04
5.827980000000000160e+01 6.022109063847312427e+03
