1.838160000000000082e+03 -1.466675607901597687e+02
1.836589999999999918e+03 2.835802171026734868e+02
1.835029999999999973e+03 3.941252181667769037e+02
1.833460000000000036e+03 4.949564808773393452e+02
1.831890000000000100e+03 5.336296193591151678e+02
1.830329999999999927e+03 4.398991825370758306e+02
1.828759999999999991e+03 2.489558058365910256e+02
1.827190000000000055e+03 2.973543049073050497e+02
1.825619999999999891e+03 2.930946797492106271e+02
1.824049999999999955e+03 2.091769303623223095e+02
1.822490000000000009e+03 4.568542737472198496e+02
1.820920000000000073e+03 3.300200091780752700e+02
1.819349999999999909e+03 3.036276203801280644e+02
1.817779999999999973e+03 4.157771073533840536e+02
1.816210000000000036e+03 2.062684700978315959e+02
1.814640000000000100e+03 1.832017086134837882e+02
1.813069999999999936e+03 2.206768229003355373e+02
1.811490000000000009e+03 2.087424630303939921e+02
1.809920000000000073e+03 3.656015955843067786e+02
1.808349999999999909e+03 2.567026039094162115e+02
1.806779999999999973e+03 1.479454880057201080e+02
1.805210000000000036e+03 2.428302478732221061e+02
1.803630000000000109e+03 1.023068689061183250e+02
1.802059999999999945e+03 1.701756470406762674e+02
1.800490000000000009e+03 9.188630094644031487e+01
1.798910000000000082e+03 -6.901038210955812247e+01
1.797339999999999918e+03 1.402842900632604142e+02
1.795769999999999982e+03 -4.747916199271639925e+01
1.794190000000000055e+03 -9.854914913760512718e+01
1.792619999999999891e+03 -9.928582926531817066e+00
1.791039999999999964e+03 -4.671401665616212995e+01
1.789470000000000027e+03 -9.440943217803214793e+01
1.787890000000000100e+03 1.068896875075879507e+02
1.786309999999999945e+03 4.803121811260643881e+01
1.784740000000000009e+03 6.856196335365530103e+01
1.783160000000000082e+03 -1.234119526260728890e+02
1.781579999999999927e+03 -9.014345768640123424e+01
1.780009999999999991e+03 -1.961865516824436781e+02
1.778430000000000064e+03 1.296649667247766047e+01
1.776849999999999909e+03 6.216195594680539216e+01
1.775269999999999982e+03 5.599982614052350982e+01
1.773690000000000055e+03 -9.911989274635561742e+01
1.772109999999999900e+03 -5.609720071384435869e+01
1.770529999999999973e+03 -8.432097761935438029e+00
1.768950000000000045e+03 -9.042458389062448987e+01
1.767369999999999891e+03 -1.375746590999187902e+02
1.765789999999999964e+03 -4.388232338981106295e+01
1.764210000000000036e+03 -1.162475767603136774e+02
1.762630000000000109e+03 -1.000704192114098987e+02
1.761049999999999955e+03 -6.635085074311427888e+01
1.759470000000000027e+03 -8.328887135542390752e+01
1.757890000000000100e+03 -1.380844810483285983e+02
1.756309999999999945e+03 -2.259376798218436306e+02
1.754720000000000027e+03 -1.510901730442019471e+02
1.753140000000000100e+03 -1.109582815553731052e+02
1.751559999999999945e+03 -9.608397914715533261e+01
1.749970000000000027e+03 -2.390081642182740325e+02
1.748390000000000100e+03 -1.277487715477109305e+02
1.746799999999999955e+03 -2.011873278105340432e+02
1.745220000000000027e+03 -2.381428448776423465e+02
1.743630000000000109e+03 -3.287957723321669619e+02
1.742049999999999955e+03 -4.066661991369328462e+02
1.740460000000000036e+03 -2.323334977831582364e+02
1.738880000000000109e+03 -4.661188343255962536e+02
1.737289999999999964e+03 -3.958005041635187808e+02
1.735710000000000036e+03 -2.623007504436136514e+02
1.734119999999999891e+03 -3.383967914732384088e+02
1.732529999999999973e+03 -2.348498830374992394e+02
1.730940000000000055e+03 -1.297600251364019641e+02
1.729359999999999900e+03 -2.119898224682838190e+02
1.727769999999999982e+03 -1.855143357588822255e+02
1.726180000000000064e+03 -2.267958995841254364e+02
1.724589999999999918e+03 -2.176345139439981722e+02
1.723000000000000000e+03 -1.250301788385149848e+02
1.721410000000000082e+03 -2.164828942676685983e+02
1.719819999999999936e+03 -2.794926602314626507e+02
1.718230000000000018e+03 -3.424594767298949591e+02
1.716640000000000100e+03 -4.965833437629553373e+02
1.715049999999999955e+03 -3.362642613306634303e+02
1.713460000000000036e+03 -4.054022294330061413e+02
1.711869999999999891e+03 -4.256972480699914740e+02
1.710279999999999973e+03 -4.648493172416128800e+02
1.708680000000000064e+03 -6.232923206580126134e+02
1.707089999999999918e+03 -5.084582207764906343e+02
1.705500000000000000e+03 -6.478811714296025457e+02
1.703910000000000082e+03 -6.475611726173556235e+02
1.702309999999999945e+03 -5.390310258613062615e+02
1.700720000000000027e+03 -6.798248579959108611e+02
1.699119999999999891e+03 -6.684080002429836895e+02
1.697529999999999973e+03 -5.644156633244419936e+02
1.695940000000000055e+03 -7.128803769405421917e+02
1.694339999999999918e+03 -5.712335886029504763e+02
1.692740000000000009e+03 -6.161433088562698686e+02
1.691150000000000091e+03 -5.826786338314377645e+02
1.689549999999999955e+03 -5.726016430878880783e+02
1.687960000000000036e+03 -5.969507990098973096e+02
1.686359999999999900e+03 -4.960870972694647207e+02
1.684759999999999991e+03 -4.687799041199396015e+02
1.683170000000000073e+03 -6.087996714010223513e+02
1.681569999999999936e+03 -6.252057672546216054e+02
1.679970000000000027e+03 -6.008683716991217807e+02
1.678369999999999891e+03 -4.591874847345316084e+02
1.676769999999999982e+03 -5.661631063608583645e+02
1.675170000000000073e+03 -4.948952365780860418e+02
1.673569999999999936e+03 -5.594838753862168232e+02
1.671970000000000027e+03 -4.022290227852572571e+02
1.670369999999999891e+03 -2.636306787752073433e+02
1.668769999999999982e+03 -3.656888433560743579e+02
1.667170000000000073e+03 -4.645035165278422937e+02
1.665569999999999936e+03 -4.789746982905126060e+02
1.663970000000000027e+03 -3.856023886440998467e+02
1.662369999999999891e+03 -2.672865875885945570e+02
1.660769999999999982e+03 -2.879272951239909162e+02
1.659160000000000082e+03 -1.103499820909855771e+02
1.657559999999999945e+03 -9.810343498689326225e+01
1.655960000000000036e+03 -3.307133964737149654e+02
1.654349999999999909e+03 -2.482045202293229522e+02
1.652750000000000000e+03 -2.342272270766479778e+02
1.651150000000000091e+03 -2.234064425148826558e+02
1.649539999999999964e+03 -8.166600305911197211e+01
1.647940000000000055e+03 -1.891579638578514277e+02
1.646329999999999927e+03 8.702755789054208435e-01
1.644730000000000018e+03 -9.563443058034317801e+01
1.643119999999999891e+03 -7.221839116259798175e+01
1.641509999999999991e+03 8.841685005740146153e+00
1.639910000000000082e+03 -3.773200328361781430e+01
1.638299999999999955e+03 -7.798412713429570431e+01
1.636690000000000055e+03 2.100077857656215201e+02
1.635089999999999918e+03 -4.334884653850167524e+00
1.633480000000000018e+03 -3.985517177294968860e+01
1.631869999999999891e+03 -6.593142214145700564e+01
1.630259999999999991e+03 1.179363642406206054e+02
1.628650000000000091e+03 1.975481873732860549e+02
1.627039999999999964e+03 1.094040472565502569e+02
1.625430000000000064e+03 1.238039438903942937e+02
1.623819999999999936e+03 1.787478772748290794e+02
1.622210000000000036e+03 -4.276415259014538606e+01
1.620599999999999909e+03 -6.383214570452764747e+01
1.618990000000000009e+03 1.594389793166919844e+01
1.617380000000000109e+03 1.976397831846406916e+01
1.615769999999999982e+03 1.601280954558387748e+02
1.614160000000000082e+03 1.639362493438129604e+02
1.612549999999999955e+03 1.088884399823655258e+02
1.610930000000000064e+03 1.438673902443333645e+02
1.609319999999999936e+03 2.563079279042649432e+02
1.607710000000000036e+03 8.059250231477562920e+01
1.606089999999999918e+03 2.659046586081531132e+02
1.604480000000000018e+03 1.785775800400406297e+02
1.602859999999999900e+03 2.213786320940525911e+02
1.601250000000000000e+03 1.156399005472958379e+02
1.599630000000000109e+03 1.043298483619473700e+02
1.598019999999999982e+03 -1.672053616343691829e+01
1.596400000000000091e+03 1.886583074118316290e+02
1.594789999999999964e+03 1.233962699078219885e+02
1.593170000000000073e+03 6.896400924372574082e+01
1.591549999999999955e+03 2.094763340694807994e+02
1.589940000000000055e+03 2.633469538576100604e+02
1.588319999999999936e+03 1.179481744439981412e+02
1.586700000000000045e+03 7.919398052023825585e+01
1.585079999999999927e+03 4.282843720863311319e+02
1.583470000000000027e+03 2.011319594373890141e+02
1.581849999999999909e+03 4.361124676411054679e+01
1.580230000000000018e+03 2.243351195806862961e+02
1.578609999999999900e+03 2.244035778871148068e+02
1.576990000000000009e+03 3.202166216833902581e+02
1.575369999999999891e+03 1.953742509695184708e+02
1.573750000000000000e+03 4.007764657455009001e+02
1.572130000000000109e+03 4.595232660113360907e+02
1.570500000000000000e+03 1.976042432244939846e+02
1.568880000000000109e+03 2.149404896891028329e+02
1.567259999999999991e+03 4.033213216435651702e+02
1.565640000000000100e+03 3.728467390878904553e+02
1.564019999999999982e+03 2.670167420220532222e+02
1.562390000000000100e+03 2.721222996977958246e+02
1.560769999999999982e+03 4.311817488307424355e+02
1.559150000000000091e+03 7.335857834535381699e+02
1.557519999999999982e+03 1.743826200174007681e+03
1.555900000000000091e+03 2.336719680995582166e+03
1.554269999999999982e+03 2.220050096051865694e+03
1.552650000000000091e+03 1.208033023072213837e+03
1.551019999999999982e+03 8.133534364643019217e+02
1.549400000000000091e+03 5.326258096834280877e+02
1.547769999999999982e+03 5.857362214113236405e+02
1.546140000000000100e+03 4.358917707660984888e+02
1.544519999999999982e+03 4.905984508929286676e+02
1.542890000000000100e+03 4.992439985835117113e+02
1.541259999999999991e+03 4.080346839009689575e+02
1.539640000000000100e+03 4.121756709355067869e+02
1.538009999999999991e+03 3.533563545887736836e+02
1.536380000000000109e+03 4.634821758689213311e+02
1.534750000000000000e+03 5.996531347759555501e+02
1.533119999999999891e+03 4.534692313098712475e+02
1.531490000000000009e+03 4.164304654706647852e+02
1.529859999999999900e+03 4.544368372583376186e+02
1.528230000000000018e+03 4.526883466728977510e+02
1.526599999999999909e+03 3.344849937143371790e+02
1.524970000000000027e+03 2.884267783826580853e+02
1.523339999999999918e+03 3.910137006778641080e+02
1.521710000000000036e+03 6.193457605999428779e+02
1.520069999999999936e+03 6.208211170741960814e+02
1.518440000000000055e+03 6.376437291680013004e+02
1.516809999999999945e+03 4.723114788886887254e+02
1.515180000000000064e+03 4.724243662362532632e+02
1.513539999999999964e+03 6.302816595066942682e+02
1.511910000000000082e+03 7.528850990259816172e+02
1.510269999999999982e+03 6.903335000029328512e+02
1.508640000000000100e+03 5.667274916939386458e+02
1.507000000000000000e+03 7.275670003774139332e+02
1.505369999999999891e+03 7.125515442401447217e+02
1.503730000000000018e+03 6.747821606301258726e+02
1.502099999999999909e+03 5.743572566645743791e+02
1.500460000000000036e+03 5.610789807610781281e+02
1.498819999999999936e+03 4.378463980192536837e+02
1.497190000000000055e+03 6.293574607702576031e+02
1.495549999999999955e+03 5.124159857349513914e+02
1.493910000000000082e+03 5.039202038613257173e+02
1.492269999999999982e+03 3.505701151493740326e+02
1.490640000000000100e+03 3.223625591617710597e+02
1.489000000000000000e+03 2.042035781563427008e+02
1.487359999999999900e+03 2.401902903125810553e+02
1.485720000000000027e+03 3.158226956305043132e+02
1.484079999999999927e+03 4.678007941100986500e+02
1.482440000000000055e+03 8.162458575137497974e+01
1.480799999999999955e+03 2.091940705543274817e+02
1.479160000000000082e+03 9.910924851895833854e+01
1.477519999999999982e+03 2.054701196452624572e+02
1.475869999999999891e+03 4.218235192213251139e+01
1.474230000000000018e+03 1.151348879886354553e+02
1.472589999999999918e+03 4.793311721680947812e+01
1.470950000000000045e+03 1.127703960667349747e+01
1.469299999999999955e+03 5.073439313331618905e+00
1.467660000000000082e+03 -6.189097335661426769e+01
1.466019999999999982e+03 8.419030713511165231e+01
1.464369999999999891e+03 -1.605750975069531705e+02
1.462730000000000018e+03 -1.559021520750320633e+02
1.461079999999999927e+03 -9.637533284434175584e+01
1.459440000000000055e+03 -8.561072247222182341e+01
1.457789999999999964e+03 -2.888916793687749305e+02
1.456150000000000091e+03 -1.290354040564707248e+02
1.454500000000000000e+03 -5.732413708026069799e+01
1.452849999999999909e+03 -1.446661800981746637e+01
1.451210000000000036e+03 7.862729402120021405e+01
1.449559999999999945e+03 -4.692296303559851367e+01
1.447910000000000082e+03 -1.055269679981574882e+02
1.446259999999999991e+03 -2.458472086648180266e+01
1.444609999999999900e+03 -8.159622164056054316e+01
1.442970000000000027e+03 -1.370727293337913579e+02
1.441319999999999936e+03 -1.393920062351171509e+02
1.439670000000000073e+03 -1.234650310422075563e+02
1.438019999999999982e+03 -7.569180375505311531e+01
1.436369999999999891e+03 1.266276756263359857e+02
1.434720000000000027e+03 -1.406065928980315221e+02
1.433059999999999945e+03 -1.998166842043065117e+01
1.431410000000000082e+03 -2.264231524405913660e+02
1.429759999999999991e+03 -1.830183843665181485e+02
1.428109999999999900e+03 4.813263580179409473e+01
1.426460000000000036e+03 -1.988700919356560917e+02
1.424799999999999955e+03 -1.296122233936366683e+02
1.423150000000000091e+03 -1.118221666268836998e+02
1.421500000000000000e+03 -2.601858577658895229e+02
1.419839999999999918e+03 -2.331881099793827161e+02
1.418190000000000055e+03 -2.589590166141897498e+02
1.416529999999999973e+03 -2.303679219931473199e+02
1.414880000000000109e+03 -2.258460441237475607e+02
1.413220000000000027e+03 -2.862616026681826042e+02
1.411569999999999936e+03 -9.594694029458696605e+01
1.409910000000000082e+03 -1.547691520044863864e+02
1.408259999999999991e+03 -2.678617051266774070e+02
1.406599999999999909e+03 -2.570905700020521181e+02
1.404940000000000055e+03 -2.115726204528582457e+02
1.403279999999999973e+03 -1.389078564790906967e+02
1.401630000000000109e+03 -1.566145602771648555e+02
1.399970000000000027e+03 -1.321564494688645937e+02
1.398309999999999945e+03 -2.704515242360030243e+02
1.396650000000000091e+03 -2.201997845785699610e+02
1.394990000000000009e+03 -7.200123049656758667e+01
1.393329999999999927e+03 -2.944558619899980840e+02
1.391670000000000073e+03 -1.431636790588636359e+02
1.390009999999999991e+03 -1.772246817031664250e+02
1.388349999999999909e+03 -1.569388699228911719e+02
1.386690000000000055e+03 -3.232062437180538836e+02
1.385029999999999973e+03 -2.833268030886429187e+02
1.383369999999999891e+03 -1.200005480346662807e+02
1.381700000000000045e+03 -9.650581218444131082e+01
1.380039999999999964e+03 -2.474856462667339656e+02
1.378380000000000109e+03 -1.277186659244434850e+02
1.376710000000000036e+03 -1.161823570432097767e+02
1.375049999999999955e+03 -1.331214658371827682e+02
1.373390000000000100e+03 -1.215137602065842657e+02
1.371720000000000027e+03 -1.308358782943505503e+02
1.370059999999999945e+03 -3.173342618000060611e+02
1.368390000000000100e+03 -2.214619032959308242e+02
1.366730000000000018e+03 -3.117663759378556279e+02
1.365059999999999945e+03 -3.988995408419359592e+02
1.363390000000000100e+03 -3.568853255933572655e+02
1.361730000000000018e+03 -1.844487909323688655e+02
1.360059999999999945e+03 -3.163400990919471951e+02
1.358390000000000100e+03 -3.522840270988672273e+02
1.356730000000000018e+03 -3.087064851349641685e+02
1.355059999999999945e+03 -3.264559365500426793e+02
1.353390000000000100e+03 -2.887580078124738066e+02
1.351720000000000027e+03 -2.301126989222284465e+02
1.350049999999999955e+03 -3.016200098793306097e+02
1.348380000000000109e+03 -2.383799406837642891e+02
1.346710000000000036e+03 -3.068924913355331228e+02
1.345039999999999964e+03 -2.060576618346458417e+02
1.343369999999999891e+03 -2.355754521810886217e+02
1.341700000000000045e+03 -2.275458623748781974e+02
1.340029999999999973e+03 -2.164688924159891030e+02
1.338359999999999900e+03 -2.636445423044497147e+02
1.336680000000000064e+03 -3.795434972965485940e+02
1.335009999999999991e+03 -1.919241031661913439e+02
1.333339999999999918e+03 -2.180573288831692480e+02
1.331660000000000082e+03 -3.800130068644430139e+02
1.329990000000000009e+03 -3.701511885626096046e+02
1.328319999999999936e+03 -3.468419901081069838e+02
1.326640000000000100e+03 -1.531543910785512708e+02
1.324970000000000027e+03 -3.641501486052366090e+02
1.323289999999999964e+03 -4.062669364310058882e+02
1.321619999999999891e+03 -2.961676499388777302e+02
1.319940000000000055e+03 -2.263888246199676360e+02
1.318259999999999991e+03 -2.534620500225391879e+02
1.316589999999999918e+03 -1.687200556454408797e+02
1.314910000000000082e+03 -1.359976679033316032e+02
1.313230000000000018e+03 -2.867273308826988796e+02
1.311559999999999945e+03 8.257371379368123598e+00
1.309880000000000109e+03 -1.377766784553277830e+02
1.308200000000000045e+03 -5.162779011494421866e+00
1.306519999999999982e+03 2.002990697108580207e+02
1.304839999999999918e+03 4.700886771174191381e+01
1.303160000000000082e+03 9.036661499115143670e+01
1.301480000000000018e+03 1.757231154908004100e+01
1.299799999999999955e+03 1.249259573855306371e+02
1.298119999999999891e+03 1.847275525005061354e+02
1.296440000000000055e+03 2.593770968940116290e+02
1.294759999999999991e+03 4.053745905660362041e+02
1.293069999999999936e+03 2.898567570897794212e+02
1.291390000000000100e+03 3.051504347312220489e+02
1.289710000000000036e+03 4.511920616511924891e+02
1.288029999999999973e+03 7.413816378496812831e+02
1.286339999999999918e+03 6.260570302482665284e+02
1.284660000000000082e+03 6.443427904161835613e+02
1.282980000000000018e+03 7.102764998626225861e+02
1.281289999999999964e+03 8.251968834451472503e+02
1.279609999999999900e+03 9.015267768610028725e+02
1.277920000000000073e+03 9.897439169365752605e+02
1.276240000000000009e+03 9.044699943218583940e+02
1.274549999999999955e+03 1.182583890890473413e+03
1.272859999999999900e+03 1.035046309261248098e+03
1.271180000000000064e+03 1.280516805306844617e+03
1.269490000000000009e+03 1.275475980170660478e+03
1.267799999999999955e+03 1.394883676836634550e+03
1.266109999999999900e+03 1.832739895304755919e+03
1.264420000000000073e+03 1.968444635575033317e+03
1.262740000000000009e+03 1.757556019662733888e+03
1.261049999999999955e+03 1.945057516426059010e+03
1.259359999999999900e+03 3.533907534991529246e+03
1.257670000000000073e+03 2.880706075359154056e+03
1.255980000000000018e+03 2.905353137528923980e+03
1.254289999999999964e+03 3.080748721500855027e+03
1.252599999999999909e+03 3.285792827274941374e+03
1.250900000000000091e+03 3.526229342614678899e+03
1.249210000000000036e+03 4.140570779104313260e+03
1.247519999999999982e+03 4.287660737396108743e+03
1.245829999999999927e+03 4.660799217490046431e+03
1.244140000000000100e+03 5.296686219386137964e+03
1.242440000000000055e+03 5.861567068103049678e+03
1.240750000000000000e+03 6.556051400714703050e+03
1.239059999999999945e+03 7.005284255128502991e+03
1.237359999999999900e+03 8.009211819395775819e+03
1.235670000000000073e+03 8.254442004525135417e+03
1.233970000000000027e+03 9.070367475429360638e+03
1.232279999999999973e+03 1.004379499127428062e+04
1.230579999999999927e+03 1.092541836881545532e+04
1.228880000000000109e+03 1.137939084408017879e+04
1.227190000000000055e+03 1.248726449955406133e+04
1.225490000000000009e+03 1.345343488145573792e+04
1.223789999999999964e+03 1.431155436108095455e+04
1.222089999999999918e+03 1.508112293842972576e+04
1.220400000000000091e+03 1.635379154244597157e+04
1.218700000000000045e+03 1.686355802643168863e+04
1.217000000000000000e+03 1.773957360814094864e+04
1.215299999999999955e+03 1.876523828757376396e+04
1.213599999999999909e+03 1.979205206473010912e+04
1.211900000000000091e+03 2.053901493961001324e+04
1.210200000000000045e+03 2.146942691221345740e+04
1.208500000000000000e+03 2.244068798254044668e+04
1.206799999999999955e+03 2.348799815059098182e+04
1.205099999999999909e+03 2.437465741636506209e+04
1.203390000000000100e+03 2.523911773902012283e+04
1.201690000000000055e+03 2.603257548905142903e+04
1.199990000000000009e+03 2.680518233680629055e+04
1.198289999999999964e+03 2.780803828228469501e+04
1.196579999999999927e+03 2.868569644158351002e+04
1.194880000000000109e+03 2.961585087131914042e+04
1.193170000000000073e+03 3.071430809419435172e+04
1.191470000000000027e+03 3.149846100818721243e+04
1.189759999999999991e+03 3.250521729463881275e+04
1.188059999999999945e+03 3.362446869288889866e+04
1.186349999999999909e+03 3.458052404291688435e+04
1.184650000000000091e+03 3.508197392542420130e+04
1.182940000000000055e+03 3.601842833902857819e+04
1.181230000000000018e+03 3.709353242967565893e+04
1.179529999999999973e+03 3.797053018297389644e+04
1.177819999999999936e+03 3.881653333719736838e+04
1.176109999999999900e+03 3.978508616846354562e+04
1.174400000000000091e+03 4.059818867677243543e+04
1.172690000000000055e+03 4.130854086212402035e+04
1.170980000000000018e+03 4.248524272451832076e+04
1.169269999999999982e+03 4.332659426395532500e+04
1.167559999999999945e+03 4.424359548043502582e+04
1.165849999999999909e+03 4.513534637395744357e+04
1.164140000000000100e+03 4.613644694452255499e+04
1.162430000000000064e+03 4.736199719213037315e+04
1.160720000000000027e+03 4.805839711678090680e+04
1.159009999999999991e+03 4.881874671847413993e+04
1.157289999999999964e+03 5.026070578821893287e+04
1.155579999999999927e+03 5.083055503450659307e+04
1.153869999999999891e+03 5.179135395783696731e+04
1.152160000000000082e+03 5.297640255821003666e+04
1.150440000000000055e+03 5.413186179036963586e+04
1.148730000000000018e+03 5.458971003533714975e+04
1.147009999999999991e+03 5.563786949480809562e+04
1.145299999999999955e+03 5.648151738437004678e+04
1.143579999999999927e+03 5.699997707115236699e+04
1.141869999999999891e+03 5.816212460530874523e+04
1.140150000000000091e+03 5.908348451940240921e+04
1.138430000000000064e+03 5.988809469325571263e+04
1.136720000000000027e+03 6.061649183955825720e+04
1.135000000000000000e+03 6.169990224072292040e+04
1.133279999999999973e+03 6.202746290164720995e+04
1.131559999999999945e+03 6.299087382233114477e+04
1.129839999999999918e+03 6.396693500277470594e+04
1.128130000000000109e+03 6.511558169632685167e+04
1.126410000000000082e+03 6.598614310408176971e+04
1.124690000000000055e+03 6.689855477159633301e+04
1.122970000000000027e+03 6.785411669887052267e+04
1.121250000000000000e+03 6.796512888590432703e+04
1.119519999999999982e+03 6.887375754038833838e+04
1.117799999999999955e+03 6.952777053914932185e+04
1.116079999999999927e+03 7.057213379766994331e+04
1.114359999999999900e+03 7.163934731595018820e+04
1.112640000000000100e+03 7.207181109399007983e+04
1.110910000000000082e+03 7.298589280221855734e+04
1.109190000000000055e+03 7.399685739198559895e+04
1.107470000000000027e+03 7.410807224151228729e+04
1.105740000000000009e+03 7.488640589955016912e+04
1.104019999999999982e+03 7.537152156080403074e+04
1.102289999999999964e+03 7.634505661668376706e+04
1.100569999999999936e+03 7.678617308966479322e+04
1.098839999999999918e+03 7.712300954338638985e+04
1.097119999999999891e+03 7.777252682809458929e+04
1.095390000000000100e+03 7.849276467965805205e+04
1.093660000000000082e+03 7.914185337709584564e+04
1.091940000000000055e+03 7.904802202549873618e+04
1.090210000000000036e+03 7.889931212077839882e+04
1.088480000000000018e+03 8.040595306193237775e+04
1.086750000000000000e+03 8.113804484896067879e+04
1.085019999999999982e+03 8.141868748186333687e+04
1.083299999999999955e+03 8.176570859789599490e+04
1.081569999999999936e+03 8.262405262864049291e+04
1.079839999999999918e+03 8.281464750525931595e+04
1.078109999999999900e+03 8.360529322775245237e+04
1.076369999999999891e+03 8.368406333449135127e+04
1.074640000000000100e+03 8.471681104263993620e+04
1.072910000000000082e+03 8.525060959666283452e+04
1.071180000000000064e+03 8.569645899656007532e+04
1.069450000000000045e+03 8.554535924233162950e+04
1.067720000000000027e+03 8.649631033397751162e+04
1.065980000000000018e+03 8.723738757500876090e+04
1.064250000000000000e+03 8.743244065231007698e+04
1.062509999999999991e+03 8.783362046850922343e+04
1.060779999999999973e+03 8.851677553146597347e+04
1.059049999999999955e+03 8.917398144029706600e+04
1.057309999999999945e+03 8.933931497144521563e+04
1.055579999999999927e+03 8.897662286593174213e+04
1.053839999999999918e+03 9.006205897224778892e+04
1.052099999999999909e+03 9.125454651395062683e+04
1.050369999999999891e+03 9.116500753387369332e+04
1.048630000000000109e+03 9.161759765074442839e+04
1.046890000000000100e+03 9.239223920300195459e+04
1.045150000000000091e+03 9.221393219064625737e+04
1.043420000000000073e+03 9.313059747578698443e+04
1.041680000000000064e+03 9.333139303859919892e+04
1.039940000000000055e+03 9.414824003679817542e+04
1.038200000000000045e+03 9.396113847038394306e+04
1.036460000000000036e+03 9.445808833935650182e+04
1.034720000000000027e+03 9.457308964371583716e+04
1.032980000000000018e+03 9.483914238346196362e+04
1.031240000000000009e+03 9.484224655859486666e+04
1.029500000000000000e+03 9.569340216911454627e+04
1.027750000000000000e+03 9.549669101336241874e+04
1.026009999999999991e+03 9.634994979026135115e+04
1.024269999999999982e+03 9.589926000254706014e+04
1.022529999999999973e+03 9.564562165021956025e+04
1.020779999999999973e+03 9.672111771574179875e+04
1.019039999999999964e+03 9.648758252979353711e+04
1.017299999999999955e+03 9.697909877923206659e+04
1.015549999999999955e+03 9.626575033503622399e+04
1.013809999999999945e+03 9.678136975085397717e+04
1.012059999999999945e+03 9.693812506594760634e+04
1.010320000000000050e+03 9.697484764814461232e+04
1.008570000000000050e+03 9.691070672252769873e+04
1.006820000000000050e+03 9.592961782520779525e+04
1.005080000000000041e+03 9.628349530477650114e+04
1.003330000000000041e+03 9.619351016674606944e+04
1.001580000000000041e+03 9.553657705701264786e+04
9.998319999999999936e+02 9.582967866711568786e+04
9.980839999999999463e+02 9.514583218666186440e+04
9.963350000000000364e+02 9.467404632926591148e+04
9.945850000000000364e+02 9.466232118406824884e+04
9.928350000000000364e+02 9.413264806716761086e+04
9.910850000000000364e+02 9.344002697856395389e+04
9.893350000000000364e+02 9.246045791825733613e+04
9.875839999999999463e+02 9.269794974853171152e+04
9.858319999999999936e+02 9.191750255862943595e+04
9.840810000000000173e+02 9.133709859420107387e+04
9.823279999999999745e+02 9.087276462068525143e+04
9.805760000000000218e+02 9.021547387264332792e+04
9.788229999999999791e+02 8.896424428301135777e+04
9.770689999999999600e+02 8.856307594113358937e+04
9.753160000000000309e+02 8.749595079494832316e+04
9.735620000000000118e+02 8.607588695609709248e+04
9.718070000000000164e+02 8.594588451397515018e+04
9.700520000000000209e+02 8.561293439787947864e+04
9.682970000000000255e+02 8.416903660781009239e+04
9.665410000000000537e+02 8.333020036354698823e+04
9.647849999999999682e+02 8.217761650495794311e+04
9.630280000000000200e+02 8.127309431150474120e+04
9.612709999999999582e+02 8.068502456340736535e+04
9.595140000000000100e+02 8.033330726066582429e+04
9.577559999999999718e+02 7.898065177230701374e+04
9.559980000000000473e+02 7.805374878901976626e+04
9.542390000000000327e+02 7.743300773958070204e+04
9.524800000000000182e+02 7.653401925496294280e+04
9.507210000000000036e+02 7.555018333516648272e+04
9.489610000000000127e+02 7.420610949863497808e+04
9.472000000000000455e+02 7.323199783506945823e+04
9.454400000000000546e+02 7.179402927764828200e+04
9.436789999999999736e+02 7.114322295301078702e+04
9.419170000000000300e+02 7.039207895090893726e+04
9.401549999999999727e+02 6.909068769308143237e+04
9.383930000000000291e+02 6.829784917952824617e+04
9.366309999999999718e+02 6.690126341024939029e+04
9.348680000000000518e+02 6.592654014311212813e+04
9.331040000000000418e+02 6.466587946797037148e+04
9.313400000000000318e+02 6.340167165690819093e+04
9.295760000000000218e+02 6.208141670992560103e+04
9.278110000000000355e+02 6.075902450477999810e+04
9.260460000000000491e+02 6.003208522366757097e+04
9.242809999999999491e+02 5.864709886658829782e+04
9.225149999999999864e+02 5.667677540127246903e+04
9.207480000000000473e+02 5.598121491772693116e+04
9.189819999999999709e+02 5.397279745045481832e+04
9.172150000000000318e+02 5.278454302497454773e+04
9.154470000000000027e+02 5.136215173134389624e+04
9.136789999999999736e+02 4.958411354181103525e+04
9.119109999999999445e+02 4.857882845637593709e+04
9.101420000000000528e+02 4.724760665297175001e+04
9.083730000000000473e+02 4.560613801375484763e+04
9.066029999999999518e+02 4.426643277678180311e+04
9.048329999999999700e+02 4.298248076411952206e+04
9.030629999999999882e+02 4.163698197576800158e+04
9.012920000000000300e+02 4.049694674001150270e+04
8.995209999999999582e+02 3.903146478872321313e+04
8.977490000000000236e+02 3.718714651037884323e+04
8.959769999999999754e+02 3.611398157669411012e+04
8.942050000000000409e+02 3.476626998766901670e+04
8.924320000000000164e+02 3.346022222210888867e+04
8.906589999999999918e+02 3.235922786143380654e+04
8.888849999999999909e+02 3.135469744470847945e+04
8.871109999999999900e+02 3.033382049312758318e+04
8.853360000000000127e+02 2.926270760604919997e+04
8.835620000000000118e+02 2.829493761489536337e+04
8.817859999999999445e+02 2.738124240820581690e+04
8.800109999999999673e+02 2.663969009744083087e+04
8.782340000000000373e+02 2.586211275212214605e+04
8.764579999999999700e+02 2.537477830272802385e+04
8.746810000000000400e+02 2.481170821947311197e+04
8.729039999999999964e+02 2.431789178234465726e+04
8.711259999999999764e+02 2.378363983211203231e+04
8.693479999999999563e+02 2.359834158840115924e+04
8.675689999999999600e+02 2.294790795241067826e+04
8.657899999999999636e+02 2.287542808337123279e+04
8.640109999999999673e+02 2.245470198128282209e+04
8.622309999999999945e+02 2.247374063803046010e+04
8.604510000000000218e+02 2.223033312219238724e+04
8.586699999999999591e+02 2.245319048615083739e+04
8.568890000000000100e+02 2.263530173802080753e+04
8.551069999999999709e+02 2.292687799071575137e+04
8.533250000000000455e+02 2.314400819185340515e+04
8.515430000000000064e+02 2.380719234143379435e+04
8.497599999999999909e+02 2.424564164320963391e+04
8.479769999999999754e+02 2.499254495399338339e+04
8.461939999999999600e+02 2.611190227378503550e+04
8.444099999999999682e+02 2.718602489722758037e+04
8.426259999999999764e+02 2.855950159027719928e+04
8.408410000000000082e+02 3.014674370821001503e+04
8.390560000000000400e+02 3.144903995638303968e+04
8.372699999999999818e+02 3.327160175073951541e+04
8.354840000000000373e+02 3.470281773600332963e+04
8.336970000000000027e+02 3.650299938881880371e+04
8.319109999999999445e+02 3.820302378623931145e+04
8.301230000000000473e+02 3.983092544927501876e+04
8.283360000000000127e+02 4.171686985691575683e+04
8.265480000000000018e+02 4.343148011426242738e+04
8.247590000000000146e+02 4.534245631244311517e+04
8.229700000000000273e+02 4.723158688373633049e+04
8.211810000000000400e+02 4.859177182814211119e+04
8.193909999999999627e+02 4.993742286534699087e+04
8.176009999999999991e+02 5.154932833646745712e+04
8.158099999999999454e+02 5.314370002202707110e+04
8.140190000000000055e+02 5.403532620233926718e+04
8.122279999999999518e+02 5.539550687740404101e+04
8.104360000000000355e+02 5.667135391904294374e+04
8.086440000000000055e+02 5.812105551630543778e+04
8.068509999999999991e+02 5.883102360191798653e+04
8.050579999999999927e+02 6.000784630405908683e+04
8.032649999999999864e+02 6.071992362272868922e+04
8.014710000000000036e+02 6.149736758205327351e+04
7.996760000000000446e+02 6.212667827346669219e+04
7.978819999999999482e+02 6.326013161820417008e+04
7.960860000000000127e+02 6.297946387161468738e+04
7.942910000000000537e+02 6.356093877834927116e+04
7.924950000000000045e+02 6.403638060014240182e+04
7.906979999999999791e+02 6.385618942852994951e+04
7.889020000000000437e+02 6.479334087972957786e+04
7.871040000000000418e+02 6.495957166676945053e+04
7.853070000000000164e+02 6.506594507662144315e+04
7.835090000000000146e+02 6.467738567624140705e+04
7.817100000000000364e+02 6.524269355726709182e+04
7.799109999999999445e+02 6.509755642096461816e+04
7.781119999999999663e+02 6.496787426733395841e+04
7.763120000000000118e+02 6.521055954792359262e+04
7.745119999999999436e+02 6.483389987232784188e+04
7.727110000000000127e+02 6.506690775327195297e+04
7.709099999999999682e+02 6.474467073920748953e+04
7.691090000000000373e+02 6.425608883013443847e+04
7.673070000000000164e+02 6.426317463058567955e+04
7.655040000000000191e+02 6.437012823240284342e+04
7.637019999999999982e+02 6.433282439587230328e+04
7.618990000000000009e+02 6.403508842195242323e+04
7.600950000000000273e+02 6.429332040253579180e+04
7.582910000000000537e+02 6.420640767184479046e+04
7.564869999999999663e+02 6.464195022987942502e+04
7.546820000000000164e+02 6.357726089565655275e+04
7.528769999999999527e+02 6.431612691147200530e+04
7.510710000000000264e+02 6.377826115768934687e+04
7.492649999999999864e+02 6.416525081529167073e+04
7.474579999999999700e+02 6.394610882602317724e+04
7.456509999999999536e+02 6.402032230952034297e+04
7.438440000000000509e+02 6.444319126578313444e+04
7.420359999999999445e+02 6.464882872866923572e+04
7.402279999999999518e+02 6.429032172573558637e+04
7.384189999999999827e+02 6.418648335228845826e+04
7.366100000000000136e+02 6.445710057447019790e+04
7.348010000000000446e+02 6.423037339228082419e+04
7.329909999999999854e+02 6.471101499324194447e+04
7.311810000000000400e+02 6.500641225131452666e+04
7.293700000000000045e+02 6.501597841553674516e+04
7.275589999999999691e+02 6.538870029838697519e+04
7.257469999999999573e+02 6.611309121045394568e+04
7.239349999999999454e+02 6.615713790269946912e+04
7.221230000000000473e+02 6.604254037512352807e+04
7.203099999999999454e+02 6.687271203068317845e+04
7.184969999999999573e+02 6.727513952800584957e+04
7.166829999999999927e+02 6.759333633166711661e+04
7.148690000000000282e+02 6.804928903870993236e+04
7.130539999999999736e+02 6.833841117536227102e+04
7.112390000000000327e+02 6.858888927704862726e+04
7.094239999999999782e+02 6.898112334376903891e+04
7.076079999999999472e+02 6.938292699427259504e+04
7.057920000000000300e+02 7.005988667149664252e+04
7.039750000000000227e+02 6.988741605591072585e+04
7.021580000000000155e+02 7.035770152876571228e+04
7.003400000000000318e+02 7.083605683228558337e+04
6.985220000000000482e+02 7.182176828600074805e+04
6.967039999999999509e+02 7.253473588991121505e+04
6.948849999999999909e+02 7.263857347891503014e+04
6.930660000000000309e+02 7.312856727990254876e+04
6.912459999999999809e+02 7.328463118959414714e+04
6.894260000000000446e+02 7.333615137309179408e+04
6.876059999999999945e+02 7.409502783039549831e+04
6.857849999999999682e+02 7.513227455100165389e+04
6.839629999999999654e+02 7.496539162772025156e+04
6.821420000000000528e+02 7.565765105058782501e+04
6.803189999999999600e+02 7.625769497381553811e+04
6.784969999999999573e+02 7.644058124319222406e+04
6.766730000000000018e+02 7.679765219870190776e+04
6.748500000000000227e+02 7.747806550036057888e+04
6.730259999999999536e+02 7.769364946775314456e+04
6.712019999999999982e+02 7.878068995658098720e+04
6.693769999999999527e+02 7.921660123509322875e+04
6.675520000000000209e+02 8.025636909703297715e+04
6.657259999999999991e+02 8.043020787267561536e+04
6.638999999999999773e+02 8.123940329377197486e+04
6.620729999999999791e+02 8.199346975265766378e+04
6.602459999999999809e+02 8.298799291905728751e+04
6.584189999999999827e+02 8.419017279297082860e+04
6.565910000000000082e+02 8.458622385986667359e+04
6.547630000000000337e+02 8.607463169637061947e+04
6.529339999999999691e+02 8.633081085007921502e+04
6.511050000000000182e+02 8.731564683552405040e+04
6.492749999999999773e+02 8.899235426246382121e+04
6.474450000000000500e+02 9.009711858330199902e+04
6.456150000000000091e+02 9.182493979803858383e+04
6.437839999999999918e+02 9.355283260971789423e+04
6.419529999999999745e+02 9.413078237749171967e+04
6.401209999999999809e+02 9.585480386663448007e+04
6.382889999999999873e+02 9.833688237410184229e+04
6.364560000000000173e+02 1.000660327274323208e+05
6.346230000000000473e+02 1.021692401613514521e+05
6.327899999999999636e+02 1.030295046758592653e+05
6.309560000000000173e+02 1.054548411919328064e+05
6.291219999999999573e+02 1.074122348508930882e+05
6.272870000000000346e+02 1.103767006360491505e+05
6.254519999999999982e+02 1.128542236264239764e+05
6.236159999999999854e+02 1.157048188676926220e+05
6.217799999999999727e+02 1.181454713765460183e+05
6.199439999999999600e+02 1.206451811529841507e+05
6.181069999999999709e+02 1.244729633362735913e+05
6.162690000000000055e+02 1.279008180200398056e+05
6.144320000000000164e+02 1.305717148945071676e+05
6.125929999999999609e+02 1.332666995648282464e+05
6.107549999999999955e+02 1.381797264258504729e+05
6.089160000000000537e+02 1.414288259747023112e+05
6.070760000000000218e+02 1.451019983051111340e+05
6.052359999999999900e+02 1.484122281529084721e+05
6.033959999999999582e+02 1.515055155180943257e+05
6.015549999999999500e+02 1.563158758211344248e+05
5.997140000000000555e+02 1.600672937040989054e+05
5.978719999999999573e+02 1.638267846500234155e+05
5.960299999999999727e+02 1.662323332384421665e+05
5.941870000000000118e+02 1.705949550149946299e+05
5.923440000000000509e+02 1.740966344966452452e+05
5.905009999999999764e+02 1.768403716833939543e+05
5.886570000000000391e+02 1.794391822148284700e+05
5.868120000000000118e+02 1.801510661849309690e+05
5.849679999999999609e+02 1.851759922831647564e+05
5.831219999999999573e+02 1.870860076163592166e+05
5.812770000000000437e+02 1.893800650776849361e+05
5.794310000000000400e+02 1.925681961657450593e+05
5.775839999999999463e+02 1.916174009746236843e+05
5.757369999999999663e+02 1.954316637393556011e+05
5.738899999999999864e+02 1.968499844599407807e+05
5.720420000000000300e+02 1.987773790582363436e+05
5.701939999999999600e+02 1.990628316751589300e+05
5.683450000000000273e+02 2.015753582953733276e+05
5.664959999999999809e+02 2.031859429970224446e+05
5.646459999999999582e+02 2.038226018276127870e+05
5.627960000000000491e+02 2.048713188024795381e+05
5.609460000000000264e+02 2.070090939216226980e+05
5.590950000000000273e+02 2.095539433268537978e+05
5.572430000000000518e+02 2.101288671125117689e+05
5.553909999999999627e+02 2.151998491682314489e+05
5.535389999999999873e+02 2.174658894940128666e+05
5.516870000000000118e+02 2.190059880898560223e+05
5.498329999999999700e+02 2.224921775540680101e+05
5.479800000000000182e+02 2.273364090836035903e+05
5.461259999999999764e+02 2.309107153082841833e+05
5.442709999999999582e+02 2.351020963226016320e+05
5.424160000000000537e+02 2.407325357959136309e+05
5.405610000000000355e+02 2.446910337282201508e+05
5.387050000000000409e+02 2.490726066077349242e+05
5.368490000000000464e+02 2.557832380092898093e+05
5.349919999999999618e+02 2.613559444841780933e+05
5.331349999999999909e+02 2.676607095441859565e+05
5.312780000000000200e+02 2.739085331893134280e+05
5.294199999999999591e+02 2.803594320655156043e+05
5.275610000000000355e+02 2.870804062674881425e+05
5.257019999999999982e+02 2.957334391808413784e+05
5.238429999999999609e+02 3.036775308055751375e+05
5.219829999999999472e+02 3.098866979139905889e+05
5.201230000000000473e+02 3.168069237969680689e+05
5.182619999999999436e+02 3.230922252900240710e+05
5.164009999999999536e+02 3.302615856208576006e+05
5.145399999999999636e+02 3.384180047894686577e+05
5.126779999999999973e+02 3.432394997262393008e+05
5.108149999999999977e+02 3.490730705260692048e+05
5.089519999999999982e+02 3.535387002902093809e+05
5.070889999999999986e+02 3.572393890186599456e+05
5.052250000000000227e+02 3.614541537684206269e+05
5.033609999999999900e+02 3.624519775458090589e+05
5.014959999999999809e+02 3.686098774711764418e+05
4.996309999999999718e+02 3.696968364875228144e+05
4.977649999999999864e+02 3.728568717785848421e+05
4.958990000000000009e+02 3.748899662240112666e+05
4.940330000000000155e+02 3.764161198238020297e+05
4.921659999999999968e+02 3.763573498568142531e+05
4.902989999999999782e+02 3.772256391076100990e+05
4.884309999999999832e+02 3.761170049185000244e+05
4.865629999999999882e+02 3.766854300106269075e+05
4.846940000000000168e+02 3.770539317897883011e+05
4.828249999999999886e+02 3.765324929136739811e+05
4.809549999999999841e+02 3.761631308516027057e+05
4.790849999999999795e+02 3.760038281977769220e+05
4.772139999999999986e+02 3.734566024850706453e+05
4.753430000000000177e+02 3.720664362441650592e+05
4.734719999999999800e+02 3.708303294750602217e+05
4.716000000000000227e+02 3.672352998060054379e+05
4.697280000000000086e+02 3.675773296723405365e+05
4.678550000000000182e+02 3.664034367659380077e+05
4.659820000000000277e+02 3.641706034585486050e+05
4.641080000000000041e+02 3.618578475057018804e+05
4.622339999999999804e+02 3.595161512155254604e+05
4.603589999999999804e+02 3.570615324072400108e+05
4.584839999999999804e+02 3.540729733253159211e+05
4.566089999999999804e+02 3.535684739697531913e+05
4.547330000000000041e+02 3.513150522553517949e+05
4.528570000000000277e+02 3.491886903310368652e+05
4.509800000000000182e+02 3.457954061753674760e+05
4.491019999999999754e+02 3.433421998840076267e+05
4.472250000000000227e+02 3.395640354679173906e+05
4.453460000000000036e+02 3.364709670542039094e+05
4.434680000000000177e+02 3.353649405157599249e+05
4.415889999999999986e+02 3.318849920330557507e+05
4.397090000000000032e+02 3.286061217018574243e+05
4.378290000000000077e+02 3.258843114159856923e+05
4.359490000000000123e+02 3.230435611754407291e+05
4.340679999999999836e+02 3.193528892460965435e+05
4.321859999999999786e+02 3.165832957238212111e+05
4.303050000000000068e+02 3.123877440448763664e+05
4.284220000000000255e+02 3.106522891987223993e+05
4.265389999999999873e+02 3.083938945896820514e+05
4.246560000000000059e+02 3.055525602177553228e+05
4.227730000000000246e+02 3.041212860829421552e+05
4.208890000000000100e+02 2.998050906750125578e+05
4.190040000000000191e+02 2.990549740899874596e+05
4.171190000000000282e+02 2.960509178701037308e+05
4.152330000000000041e+02 2.944289406012202962e+05
4.133469999999999800e+02 2.873120237615431543e+05
4.114610000000000127e+02 2.906001673510723049e+05
4.095740000000000123e+02 2.879923900518064038e+05
4.076870000000000118e+02 2.871066732458456536e+05
4.057989999999999782e+02 2.850350356793215615e+05
4.039110000000000014e+02 2.835744586702354718e+05
4.020219999999999914e+02 2.809649610288856202e+05
4.001329999999999814e+02 2.794925240091406740e+05
3.982429999999999950e+02 2.780601664854995906e+05
3.963530000000000086e+02 2.773278696476640762e+05
3.944630000000000223e+02 2.764156334956342471e+05
3.925720000000000027e+02 2.745164770002528094e+05
3.906800000000000068e+02 2.729804002578973304e+05
3.887880000000000109e+02 2.705353843298509601e+05
3.868960000000000150e+02 2.692444292161138146e+05
3.850029999999999859e+02 2.692985540161169483e+05
3.831100000000000136e+02 2.689317396947320085e+05
3.812160000000000082e+02 2.667820054157268023e+05
3.793220000000000027e+02 2.670383320796702174e+05
3.774270000000000209e+02 2.664977389147007489e+05
3.755319999999999823e+02 2.638562067570505897e+05
3.736370000000000005e+02 2.645107356067196815e+05
3.717400000000000091e+02 2.631243641131991753e+05
3.698439999999999941e+02 2.623690343988594250e+05
3.679470000000000027e+02 2.595107851454362390e+05
3.660489999999999782e+02 2.590056164496131241e+05
3.641519999999999868e+02 2.588704895007429295e+05
3.622529999999999859e+02 2.588724626598724863e+05
3.603539999999999850e+02 2.574464970841438335e+05
3.584549999999999841e+02 2.560755927735569712e+05
3.565550000000000068e+02 2.563397693108413660e+05
3.546549999999999727e+02 2.557900071778080892e+05
3.527540000000000191e+02 2.537463260217611969e+05
3.508530000000000086e+02 2.543707062599711935e+05
3.489510000000000218e+02 2.545121676043506595e+05
3.470489999999999782e+02 2.534396904075955390e+05
3.451469999999999914e+02 2.514942746697058319e+05
3.432440000000000282e+02 2.505119401995493681e+05
3.413399999999999750e+02 2.492526870941153902e+05
3.394359999999999786e+02 2.485904955768658256e+05
3.375319999999999823e+02 2.476383656478006742e+05
3.356270000000000095e+02 2.470293172451916616e+05
3.337219999999999800e+02 2.463063304954775376e+05
3.318159999999999741e+02 2.455624254016744671e+05
3.299089999999999918e+02 2.435316020609245752e+05
3.280029999999999859e+02 2.436858204347808205e+05
3.260950000000000273e+02 2.434321407266779570e+05
3.241879999999999882e+02 2.421805027331812598e+05
3.222799999999999727e+02 2.429389466871239420e+05
3.203709999999999809e+02 2.424664726857501082e+05
3.184619999999999891e+02 2.401730605964527640e+05
3.165520000000000209e+02 2.426857306815656193e+05
3.146419999999999959e+02 2.399984627436352894e+05
3.127320000000000277e+02 2.401902567826618033e+05
3.108210000000000264e+02 2.379051331583418651e+05
3.089089999999999918e+02 2.386670919680724328e+05
3.069970000000000141e+02 2.390691128846224747e+05
3.050849999999999795e+02 2.380381959079919616e+05
3.031720000000000255e+02 2.368543615278252109e+05
3.012590000000000146e+02 2.354415893194602104e+05
2.993450000000000273e+02 2.344838998375574593e+05
2.974300000000000068e+02 2.355772931796668854e+05
2.955160000000000196e+02 2.340917282039167767e+05
2.936000000000000227e+02 2.325792667694904376e+05
2.916850000000000023e+02 2.321688470172045927e+05
2.897690000000000055e+02 2.304135102841325570e+05
2.878519999999999754e+02 2.276172566679261508e+05
2.859350000000000023e+02 2.289730654837904149e+05
2.840169999999999959e+02 2.278729575467906543e+05
2.820989999999999895e+02 2.268069121070137189e+05
2.801800000000000068e+02 2.261749500447110913e+05
2.782610000000000241e+02 2.255180505448174372e+05
2.763419999999999845e+02 2.255452136073327274e+05
2.744220000000000255e+02 2.239774602103301731e+05
2.725009999999999764e+02 2.235607904516654380e+05
2.705799999999999841e+02 2.232621833858839236e+05
2.686589999999999918e+02 2.220626390129855718e+05
2.667370000000000232e+02 2.215721784416027658e+05
2.648149999999999977e+02 2.203477806283912505e+05
2.628919999999999959e+02 2.205024667473054142e+05
2.609689999999999941e+02 2.207272156897129025e+05
2.590450000000000159e+02 2.191100486949241895e+05
2.571209999999999809e+02 2.179589445889848284e+05
2.551959999999999980e+02 2.183349246765952848e+05
2.532709999999999866e+02 2.188219677184451139e+05
2.513449999999999989e+02 2.178290950846587948e+05
2.494190000000000111e+02 2.188132854705358332e+05
2.474919999999999902e+02 2.177005603116586863e+05
2.455649999999999977e+02 2.180158982379028457e+05
2.436370000000000005e+02 2.179383207503427402e+05
2.417090000000000032e+02 2.179548064133959124e+05
2.397800000000000011e+02 2.186133767936626391e+05
2.378509999999999991e+02 2.183510103900685790e+05
2.359219999999999970e+02 2.184067072026137321e+05
2.339919999999999902e+02 2.190904888962297700e+05
2.320610000000000070e+02 2.190573555692819646e+05
2.301299999999999955e+02 2.191662855896271649e+05
2.281990000000000123e+02 2.181542789572653419e+05
2.262669999999999959e+02 2.195703574683668849e+05
2.243340000000000032e+02 2.201745212213990453e+05
2.224010000000000105e+02 2.188567484530139191e+05
2.204679999999999893e+02 2.196030391632114479e+05
2.185339999999999918e+02 2.195644152795366535e+05
2.165999999999999943e+02 2.179538549401403870e+05
2.146649999999999920e+02 2.187473801382973907e+05
2.127299999999999898e+02 2.194069689464626717e+05
2.107940000000000111e+02 2.193586434236748028e+05
2.088569999999999993e+02 2.191454036686049076e+05
2.069209999999999923e+02 2.187392055302515219e+05
2.049830000000000041e+02 2.190171153831745323e+05
2.030449999999999875e+02 2.191160890434990579e+05
2.011069999999999993e+02 2.191461265112250985e+05
1.991680000000000064e+02 2.184992500429033826e+05
1.972290000000000134e+02 2.192844374478488753e+05
1.952899999999999920e+02 2.185896887260615767e+05
1.933489999999999895e+02 2.185510485883420042e+05
1.914089999999999918e+02 2.190684500673389120e+05
1.894670000000000130e+02 2.194059603282044700e+05
1.875260000000000105e+02 2.192515122057865374e+05
1.855840000000000032e+02 2.208431505757961713e+05
1.836409999999999911e+02 2.215698755372102896e+05
1.816980000000000075e+02 2.202536646356942074e+05
1.797539999999999907e+02 2.213445404576198198e+05
1.778100000000000023e+02 2.234434804826508043e+05
1.758650000000000091e+02 2.240075073632286803e+05
1.739199999999999875e+02 2.247585985129814653e+05
1.719749999999999943e+02 2.248087539319092175e+05
1.700289999999999964e+02 2.253149963716002239e+05
1.680819999999999936e+02 2.258993259312352457e+05
1.661349999999999909e+02 2.260227198922863172e+05
1.641870000000000118e+02 2.289712011055904150e+05
1.622390000000000043e+02 2.287657467864820501e+05
1.602909999999999968e+02 2.306273569349611935e+05
1.583420000000000130e+02 2.316350545011646172e+05
1.563919999999999959e+02 2.331878395844259940e+05
1.544420000000000073e+02 2.351686892677198630e+05
1.524919999999999902e+02 2.351276035510461661e+05
1.505409999999999968e+02 2.350636055170715554e+05
1.485889999999999986e+02 2.366726952652316540e+05
1.466370000000000005e+02 2.361508497460050567e+05
1.446850000000000023e+02 2.375000689593917341e+05
1.427319999999999993e+02 2.385983761207241332e+05
1.407779999999999916e+02 2.414297713295398280e+05
1.388240000000000123e+02 2.421192314036855532e+05
1.368700000000000045e+02 2.414637563431613089e+05
1.349149999999999920e+02 2.413673694961012516e+05
1.329590000000000032e+02 2.416830709621448768e+05
1.310029999999999859e+02 2.438638374263711739e+05
1.290469999999999970e+02 2.459106688887802011e+05
1.270900000000000034e+02 2.451105888304436521e+05
1.251320000000000050e+02 2.466585973511029733e+05
1.231740000000000066e+02 2.463256710029335809e+05
1.212159999999999940e+02 2.465048097859354748e+05
1.192570000000000050e+02 2.452560373142538883e+05
1.172980000000000018e+02 2.458973300402888563e+05
1.153379999999999939e+02 2.442037116447648441e+05
1.133769999999999953e+02 2.406791822275761515e+05
1.114159999999999968e+02 2.404767181412964419e+05
1.094549999999999983e+02 2.420643193859257153e+05
1.074929999999999950e+02 2.418230097754658491e+05
1.055300000000000011e+02 2.371157894099130644e+05
1.035669999999999931e+02 2.285916345085976063e+05
1.016039999999999992e+02 2.226135450715194747e+05
9.963989999999999725e+01 2.166045474408362934e+05
9.767539999999999623e+01 2.152136249400975648e+05
9.571040000000000703e+01 2.147087800107709481e+05
9.374490000000000123e+01 2.170030127029310970e+05
9.177899999999999636e+01 2.185073206585679145e+05
8.981250000000000000e+01 2.180417087406353385e+05
8.784550000000000125e+01 2.174211745944888389e+05
8.587800000000000011e+01 2.178607182702539722e+05
8.390999999999999659e+01 2.159183398180689837e+05
8.194150000000000489e+01 2.102280392880849540e+05
7.997239999999999327e+01 2.039968191586208413e+05
7.800289999999999679e+01 2.023096746268887073e+05
7.603289999999999793e+01 1.977836081678878691e+05
7.406239999999999668e+01 1.922506198318203678e+05
7.209130000000000393e+01 1.798747121104452235e+05
7.011979999999999791e+01 1.580468801742506912e+05
6.814770000000000039e+01 1.290111289599167794e+05
6.617520000000000380e+01 9.801275362455949653e+04
6.420210000000000150e+01 6.772995911828546377e+04
6.222849999999999682e+01 4.342404304313167813e+04
6.025439999999999685e+01 2.666850544939188694e+04
5.827980000000000160e+01 1.552154638737255482e+04
