1.838160000000000082e+03 -8.028636089030478615e+02
1.836589999999999918e+03 8.616501080802700017e+02
1.835029999999999973e+03 7.113104981613578275e+02
1.833460000000000036e+03 2.665875663413316943e+02
1.831890000000000100e+03 1.227459320864290930e+02
1.830329999999999927e+03 -1.079467656869092025e+02
1.828759999999999991e+03 -6.480250487450975925e+02
1.827190000000000055e+03 1.038777965761837550e+03
1.825619999999999891e+03 2.854622778339253273e+02
1.824049999999999955e+03 -2.097211252886336297e+01
1.822490000000000009e+03 4.547462091064662673e+02
1.820920000000000073e+03 1.668075169940391788e+03
1.819349999999999909e+03 8.712854283394408412e+02
1.817779999999999973e+03 6.993769843036425300e+02
1.816210000000000036e+03 1.623498378329095431e+02
1.814640000000000100e+03 -2.167960110726708081e+02
1.813069999999999936e+03 4.889394375869305804e+02
1.811490000000000009e+03 1.281279476913332473e+03
1.809920000000000073e+03 6.007767646366846748e+02
1.808349999999999909e+03 -6.084465007481048815e+01
1.806779999999999973e+03 6.224152327787887771e+02
1.805210000000000036e+03 3.045564131974824704e+02
1.803630000000000109e+03 2.752983991350629367e+02
1.802059999999999945e+03 -5.327985813823761418e+02
1.800490000000000009e+03 -1.480142643347789999e+02
1.798910000000000082e+03 -1.019631414783390937e+03
1.797339999999999918e+03 -8.908525867189746350e+01
1.795769999999999982e+03 -2.554657804995367769e+03
1.794190000000000055e+03 -1.399634091830201214e+03
1.792619999999999891e+03 -4.604447990898333956e+02
1.791039999999999964e+03 -4.826607638094865251e+02
1.789470000000000027e+03 -1.917096320053678937e+02
1.787890000000000100e+03 -1.376165274609869812e+03
1.786309999999999945e+03 -7.007411365978769027e+02
1.784740000000000009e+03 -6.701476242312637623e+02
1.783160000000000082e+03 -6.279631641041196417e+02
1.781579999999999927e+03 -1.061898923360480694e+03
1.780009999999999991e+03 1.743369695685687475e+02
1.778430000000000064e+03 2.851615324273298029e+02
1.776849999999999909e+03 2.658658759026147891e+02
1.775269999999999982e+03 7.644999999436549842e+01
1.773690000000000055e+03 -2.708609529738896526e+01
1.772109999999999900e+03 1.202575900273513980e+02
1.770529999999999973e+03 9.244810559685574844e+02
1.768950000000000045e+03 3.745843025262583978e+02
1.767369999999999891e+03 4.095673297005123459e+02
1.765789999999999964e+03 9.244301374911738094e+02
1.764210000000000036e+03 9.051727258983592037e+02
1.762630000000000109e+03 1.517950949220103212e+02
1.761049999999999955e+03 6.532972445621853694e+02
1.759470000000000027e+03 9.096791748187970370e+02
1.757890000000000100e+03 2.429408856919617392e+02
1.756309999999999945e+03 6.010823771815630607e+02
1.754720000000000027e+03 5.527996036039548926e+02
1.753140000000000100e+03 -7.363001045556156896e+02
1.751559999999999945e+03 1.284799679013085552e+02
1.749970000000000027e+03 -2.791665121712430846e+02
1.748390000000000100e+03 2.423723606364510488e+02
1.746799999999999955e+03 -5.745168456652900204e+02
1.745220000000000027e+03 -1.121219172506796895e+03
1.743630000000000109e+03 -8.283511050379020162e+02
1.742049999999999955e+03 -1.715294631528522586e+03
1.740460000000000036e+03 -2.448669290288846241e+03
1.738880000000000109e+03 -9.998540164287551306e+02
1.737289999999999964e+03 -1.801471401418268215e+03
1.735710000000000036e+03 -1.809897327207349008e+03
1.734119999999999891e+03 -2.054757438426138833e+03
1.732529999999999973e+03 -1.177739295608538669e+03
1.730940000000000055e+03 -2.253842898754519410e+03
1.729359999999999900e+03 -1.188751984724134672e+03
1.727769999999999982e+03 -1.245098314099363051e+03
1.726180000000000064e+03 -1.201566389438172337e+03
1.724589999999999918e+03 -2.029156210740504321e+03
1.723000000000000000e+03 -1.182867778006417211e+03
1.721410000000000082e+03 -9.747010912359110080e+02
1.719819999999999936e+03 -1.524656150428985711e+03
1.718230000000000018e+03 -1.274732955585641321e+03
1.716640000000000100e+03 -1.622931506705819629e+03
1.715049999999999955e+03 -1.411251803789578844e+03
1.713460000000000036e+03 -1.323693846836918965e+03
1.711869999999999891e+03 -1.071257635847839992e+03
1.710279999999999973e+03 -1.428943170822341926e+03
1.708680000000000064e+03 -8.920766689727606717e+02
1.707089999999999918e+03 2.369935384277487174e+02
1.705500000000000000e+03 -1.803058000135351904e+03
1.703910000000000082e+03 -7.052312846619752236e+02
1.702309999999999945e+03 5.814440002819173969e+01
1.700720000000000027e+03 -1.992731421234784648e+02
1.699119999999999891e+03 4.398567487302352674e+02
1.697529999999999973e+03 8.691949489534890745e+02
1.695940000000000055e+03 -4.958859678677981719e+01
1.694339999999999918e+03 1.154172988568956498e+03
1.692740000000000009e+03 -1.451887082504108548e+02
1.691150000000000091e+03 3.896609767228364944e+02
1.689549999999999955e+03 1.622053486067045014e+03
1.687960000000000036e+03 1.238658913415216375e+03
1.686359999999999900e+03 1.388805628922942560e+03
1.684759999999999991e+03 2.796829062255506869e+03
1.683170000000000073e+03 1.429067720317252679e+03
1.681569999999999936e+03 1.301845359813392861e+03
1.679970000000000027e+03 2.230499717134458479e+03
1.678369999999999891e+03 1.436030792280449532e+03
1.676769999999999982e+03 1.638438585251395125e+03
1.675170000000000073e+03 8.787230960473243613e+02
1.673569999999999936e+03 9.708843246682081372e+02
1.671970000000000027e+03 7.069222711140173487e+02
1.670369999999999891e+03 2.166836935384781100e+03
1.668769999999999982e+03 1.299628317480499391e+03
1.667170000000000073e+03 1.039296417401172221e+03
1.665569999999999936e+03 1.284841235146799590e+03
1.663970000000000027e+03 1.685262770717352396e+03
1.662369999999999891e+03 2.038561024112917949e+03
1.660769999999999982e+03 1.120735995333350729e+03
1.659160000000000082e+03 2.331437619770702440e+03
1.657559999999999945e+03 1.848365256127493922e+03
1.655960000000000036e+03 1.216169610309239943e+03
1.654349999999999909e+03 6.834983013513265178e+02
1.652750000000000000e+03 1.683055320669373032e+03
1.651150000000000091e+03 7.944890578123740852e+02
1.649539999999999964e+03 2.494448154592537321e+02
1.647940000000000055e+03 8.106312177385552786e+02
1.646329999999999927e+03 9.773380946788529400e+02
1.644730000000000018e+03 4.692771620944549795e+02
1.643119999999999891e+03 1.020735158328141551e+03
1.641509999999999991e+03 1.195068326543900184e+03
1.639910000000000082e+03 8.876360064071777742e+02
1.638299999999999955e+03 9.017202939163544215e+02
1.636690000000000055e+03 7.076797534075449221e+02
1.635089999999999918e+03 8.876045718527166173e+00
1.633480000000000018e+03 1.070586624503106577e+03
1.631869999999999891e+03 -8.482762473018374294e+01
1.630259999999999991e+03 1.195633298018539790e+03
1.628650000000000091e+03 5.519693927493062802e+02
1.627039999999999964e+03 -5.818193405378551688e+02
1.625430000000000064e+03 7.326709815702633932e+01
1.623819999999999936e+03 -3.577129116602009162e+01
1.622210000000000036e+03 -7.299345085070526693e+02
1.620599999999999909e+03 -8.232225538659840822e+02
1.618990000000000009e+03 -1.428635427242901642e+03
1.617380000000000109e+03 -1.041173128637747141e+03
1.615769999999999982e+03 -1.152835658050520578e+03
1.614160000000000082e+03 -1.042623015481280163e+03
1.612549999999999955e+03 -1.556535200929909479e+03
1.610930000000000064e+03 -7.709455051738186739e+02
1.609319999999999936e+03 -1.427108121987665072e+03
1.607710000000000036e+03 -1.400395566819526721e+03
1.606089999999999918e+03 -1.001183461250155233e+03
1.604480000000000018e+03 -2.187721337447175756e+03
1.602859999999999900e+03 -1.057761218717350857e+03
1.601250000000000000e+03 -2.481549526279588463e+03
1.599630000000000109e+03 -1.982841394389281049e+03
1.598019999999999982e+03 -1.947880133316648426e+03
1.596400000000000091e+03 -1.966423988265887601e+03
1.594789999999999964e+03 -1.750713158558442956e+03
1.593170000000000073e+03 -2.637509000347170513e+03
1.591549999999999955e+03 -1.841431225628126413e+03
1.589940000000000055e+03 -7.180964306331879925e+02
1.588319999999999936e+03 -1.830270642753690481e+03
1.586700000000000045e+03 -2.483571238366450416e+03
1.585079999999999927e+03 -9.139982174714095891e+02
1.583470000000000027e+03 -1.738165060536208330e+03
1.581849999999999909e+03 -1.763844026480684988e+03
1.580230000000000018e+03 -1.230649375917506404e+03
1.578609999999999900e+03 -1.362581108846556162e+03
1.576990000000000009e+03 -6.886392252678924706e+02
1.575369999999999891e+03 -2.488237251814571209e+02
1.573750000000000000e+03 -3.801346085873083211e+02
1.572130000000000109e+03 -4.795718754854460713e+02
1.570500000000000000e+03 -3.852828656847123057e+01
1.568880000000000109e+03 -9.552191005961503834e+02
1.567259999999999991e+03 -7.230362981160287745e+02
1.565640000000000100e+03 -7.969798791282228194e+02
1.564019999999999982e+03 -1.023049843632645207e+03
1.562390000000000100e+03 -2.016428578628110699e+02
1.560769999999999982e+03 5.010336305032251403e+02
1.559150000000000091e+03 9.885837353769456968e+02
1.557519999999999982e+03 2.887608445274265250e+03
1.555900000000000091e+03 3.917905003018473508e+03
1.554269999999999982e+03 2.729674600680533331e+03
1.552650000000000091e+03 9.897176112951419782e+02
1.551019999999999982e+03 4.342320967219420709e+02
1.549400000000000091e+03 8.802156020703841932e+01
1.547769999999999982e+03 8.822809333985205740e+02
1.546140000000000100e+03 9.574123579919687472e+02
1.544519999999999982e+03 1.096821110710268840e+03
1.542890000000000100e+03 8.716974230684572831e+02
1.541259999999999991e+03 1.583445786828669952e+03
1.539640000000000100e+03 7.414738287801446859e+02
1.538009999999999991e+03 1.367967080305039417e+03
1.536380000000000109e+03 1.273332383231929271e+03
1.534750000000000000e+03 1.948569737560843350e+03
1.533119999999999891e+03 1.463679143291781656e+03
1.531490000000000009e+03 1.392660600424656877e+03
1.529859999999999900e+03 1.790514108959585428e+03
1.528230000000000018e+03 1.278239668896421790e+03
1.526599999999999909e+03 1.279837280235369690e+03
1.524970000000000027e+03 6.213069429762254003e+02
1.523339999999999918e+03 1.395648657119134441e+03
1.521710000000000036e+03 2.463862422664009500e+03
1.520069999999999936e+03 1.611531193292903481e+03
1.518440000000000055e+03 3.245488276681047864e+03
1.516809999999999945e+03 1.285317411471245578e+03
1.515180000000000064e+03 2.232018597663380206e+03
1.513539999999999964e+03 2.795171644280955661e+03
1.511910000000000082e+03 2.259616148316359613e+03
1.510269999999999982e+03 1.682510938040039036e+03
1.508640000000000100e+03 1.937698759918741416e+03
1.507000000000000000e+03 1.991335292748553911e+03
1.505369999999999891e+03 1.610266432470525615e+03
1.503730000000000018e+03 1.179644708406412974e+03
1.502099999999999909e+03 1.231319165971683105e+03
1.500460000000000036e+03 1.318439185013703536e+03
1.498819999999999936e+03 1.043429680720553733e+03
1.497190000000000055e+03 1.134718722570338286e+03
1.495549999999999955e+03 1.013450961383321555e+03
1.493910000000000082e+03 1.475053676861105487e+03
1.492269999999999982e+03 6.125268690037773922e+02
1.490640000000000100e+03 3.233017615793796722e+02
1.489000000000000000e+03 -9.804833031718153507e+02
1.487359999999999900e+03 6.296021087417902891e+02
1.485720000000000027e+03 -1.114420026797452010e+02
1.484079999999999927e+03 -2.761563743645092472e+01
1.482440000000000055e+03 -2.919187955283559859e+02
1.480799999999999955e+03 9.164852304462692700e+01
1.479160000000000082e+03 -1.033913681717560394e+03
1.477519999999999982e+03 -6.516054098148888443e+02
1.475869999999999891e+03 -2.878649930034007411e+02
1.474230000000000018e+03 -8.598165575475431979e+02
1.472589999999999918e+03 -1.248897645426797681e+03
1.470950000000000045e+03 -1.313108256641222397e+03
1.469299999999999955e+03 -1.013889886868244503e+03
1.467660000000000082e+03 -1.820360334529454121e+03
1.466019999999999982e+03 -1.275960305525746662e+03
1.464369999999999891e+03 -1.836133669679722516e+03
1.462730000000000018e+03 -2.326993477122829063e+03
1.461079999999999927e+03 -1.368428262092114892e+03
1.459440000000000055e+03 -1.856547905981948134e+03
1.457789999999999964e+03 -1.471244111766602146e+03
1.456150000000000091e+03 -1.797623592103191186e+03
1.454500000000000000e+03 -4.465812187031551730e+02
1.452849999999999909e+03 -6.316699530068435706e+02
1.451210000000000036e+03 -8.734395829018030781e+02
1.449559999999999945e+03 -6.627897380208014511e+02
1.447910000000000082e+03 -8.502710008436115459e+02
1.446259999999999991e+03 1.091166286298830528e+02
1.444609999999999900e+03 -1.108626849600346759e+03
1.442970000000000027e+03 -6.530472552768187597e+02
1.441319999999999936e+03 -8.130521543223876506e+02
1.439670000000000073e+03 -1.201881610717391595e+02
1.438019999999999982e+03 -2.845527552475687116e+01
1.436369999999999891e+03 -7.385349768152809702e+01
1.434720000000000027e+03 -6.733828275420819409e+02
1.433059999999999945e+03 2.544977870832954068e+02
1.431410000000000082e+03 -1.752945527768752072e+02
1.429759999999999991e+03 -3.982180003407411277e+02
1.428109999999999900e+03 -9.327255560836056247e+01
1.426460000000000036e+03 -1.406458218579733511e+03
1.424799999999999955e+03 -7.622379148416221142e+02
1.423150000000000091e+03 -7.706865878126118332e+02
1.421500000000000000e+03 -5.442663684873259626e+02
1.419839999999999918e+03 -4.844257104469579645e+01
1.418190000000000055e+03 1.207146382809733041e+02
1.416529999999999973e+03 -2.057261682760436088e+02
1.414880000000000109e+03 -7.283196894999127835e+01
1.413220000000000027e+03 -8.175373795066261664e+02
1.411569999999999936e+03 7.640938098198093940e+02
1.409910000000000082e+03 -9.287620473644346930e+01
1.408259999999999991e+03 5.214919745903753210e+02
1.406599999999999909e+03 1.032573560345335864e+02
1.404940000000000055e+03 7.058900357749080285e+02
1.403279999999999973e+03 3.043900138115859590e+02
1.401630000000000109e+03 6.002313785470032599e+02
1.399970000000000027e+03 1.884667525840632152e+02
1.398309999999999945e+03 7.185694249173975550e+02
1.396650000000000091e+03 4.665393955469480716e+02
1.394990000000000009e+03 5.783766644728311803e+02
1.393329999999999927e+03 1.080812316949595697e+02
1.391670000000000073e+03 -1.346902786695864052e+00
1.390009999999999991e+03 7.750922610279521905e+02
1.388349999999999909e+03 8.973987231388746295e+02
1.386690000000000055e+03 1.031572483546042349e+03
1.385029999999999973e+03 5.016135422494844534e+02
1.383369999999999891e+03 1.002521899249200942e+03
1.381700000000000045e+03 2.798138732483785134e+02
1.380039999999999964e+03 6.814560274327814113e+02
1.378380000000000109e+03 9.799654799134004861e+02
1.376710000000000036e+03 1.359856146354286466e+03
1.375049999999999955e+03 7.080993960196501575e+02
1.373390000000000100e+03 7.912099439812009223e+02
1.371720000000000027e+03 -1.613006971362046897e+02
1.370059999999999945e+03 1.755436480100324843e+02
1.368390000000000100e+03 1.657652004458359443e+02
1.366730000000000018e+03 1.763433427767886315e+02
1.365059999999999945e+03 -5.557029112341115251e+02
1.363390000000000100e+03 -3.928834705802146345e+02
1.361730000000000018e+03 -5.270503217616351321e+01
1.360059999999999945e+03 -3.851533979689702392e+02
1.358390000000000100e+03 6.512639309030200820e+02
1.356730000000000018e+03 2.550426653801696375e+02
1.355059999999999945e+03 1.501921878054563422e+02
1.353390000000000100e+03 -4.137925951044308022e+02
1.351720000000000027e+03 -1.209116833494335879e+02
1.350049999999999955e+03 -4.521650769295811187e+02
1.348380000000000109e+03 -7.545527758449316025e+02
1.346710000000000036e+03 -1.570747800953977276e+02
1.345039999999999964e+03 3.192689103189914022e+02
1.343369999999999891e+03 2.174782953982066829e+02
1.341700000000000045e+03 -1.834466248577227816e+02
1.340029999999999973e+03 -3.085058504487969913e+02
1.338359999999999900e+03 1.883006186249840539e+02
1.336680000000000064e+03 -1.335325792594230734e+02
1.335009999999999991e+03 -6.199552507954649627e+01
1.333339999999999918e+03 -3.259277623478556052e+01
1.331660000000000082e+03 -6.568321118346066214e+02
1.329990000000000009e+03 -1.030698777883721050e+03
1.328319999999999936e+03 -9.996997492680093274e+02
1.326640000000000100e+03 -1.735345222583244322e+03
1.324970000000000027e+03 -1.534615608861378860e+03
1.323289999999999964e+03 -1.323532110333326273e+03
1.321619999999999891e+03 -8.240719115053070709e+02
1.319940000000000055e+03 -1.683259441133996006e+03
1.318259999999999991e+03 -8.855828893606085330e+02
1.316589999999999918e+03 -5.885272149852244183e+02
1.314910000000000082e+03 -7.641216913685784675e+02
1.313230000000000018e+03 -1.478520863498852123e+02
1.311559999999999945e+03 -3.762009364270779770e+02
1.309880000000000109e+03 -7.882023595651262440e+02
1.308200000000000045e+03 -1.593397013011563104e+02
1.306519999999999982e+03 1.273870383648318239e+02
1.304839999999999918e+03 4.179778594328381587e+02
1.303160000000000082e+03 1.454327619028044865e+02
1.301480000000000018e+03 1.475174577481811866e+01
1.299799999999999955e+03 1.089348110488499515e+02
1.298119999999999891e+03 5.098195772489998490e+01
1.296440000000000055e+03 -1.710681419708998874e+01
1.294759999999999991e+03 6.606684952829964459e+02
1.293069999999999936e+03 1.260781523230893072e+03
1.291390000000000100e+03 3.672841864756774157e+02
1.289710000000000036e+03 1.153650931122479960e+03
1.288029999999999973e+03 1.488881757171300706e+03
1.286339999999999918e+03 1.010447060715203406e+03
1.284660000000000082e+03 1.038405240528751165e+03
1.282980000000000018e+03 1.178227501744317124e+03
1.281289999999999964e+03 1.470381808521429775e+03
1.279609999999999900e+03 1.715931423501751851e+03
1.277920000000000073e+03 1.885811461149307434e+03
1.276240000000000009e+03 1.199088429894385627e+03
1.274549999999999955e+03 2.175694198412471451e+03
1.272859999999999900e+03 2.285162425438291393e+03
1.271180000000000064e+03 3.555030020310834516e+03
1.269490000000000009e+03 2.775223978207155596e+03
1.267799999999999955e+03 3.023280394611239899e+03
1.266109999999999900e+03 3.870199269523058319e+03
1.264420000000000073e+03 3.973980602942639962e+03
1.262740000000000009e+03 3.838165368668123847e+03
1.261049999999999955e+03 4.332672432958206628e+03
1.259359999999999900e+03 5.109041955756023526e+03
1.257670000000000073e+03 5.295273937061545439e+03
1.255980000000000018e+03 6.440368376874888781e+03
1.254289999999999964e+03 6.462325275195966242e+03
1.252599999999999909e+03 5.315144632024806924e+03
1.250900000000000091e+03 6.002279776578303427e+03
1.249210000000000036e+03 7.438823236567666754e+03
1.247519999999999982e+03 7.396229155064764200e+03
1.245829999999999927e+03 7.605497532069624867e+03
1.244140000000000100e+03 9.030628367582219653e+03
1.242440000000000055e+03 9.773070916728873271e+03
1.240750000000000000e+03 1.069392585540201981e+04
1.239059999999999945e+03 1.220064325258290046e+04
1.237359999999999900e+03 1.314766991701719235e+04
1.235670000000000073e+03 1.296711141735853744e+04
1.233970000000000027e+03 1.483486055242767907e+04
1.232279999999999973e+03 1.473702615592960501e+04
1.230579999999999927e+03 1.561649776163359638e+04
1.228880000000000109e+03 1.578683019331959076e+04
1.227190000000000055e+03 1.687858154463482788e+04
1.225490000000000009e+03 1.643063644695570110e+04
1.223789999999999964e+03 1.848955217525869375e+04
1.222089999999999918e+03 1.897932872954371851e+04
1.220400000000000091e+03 1.926652747332496801e+04
1.218700000000000045e+03 1.981702649824484251e+04
1.217000000000000000e+03 2.105538634914680733e+04
1.215299999999999955e+03 2.178360702603083337e+04
1.213599999999999909e+03 2.213668852889694972e+04
1.211900000000000091e+03 2.295763085774512729e+04
1.210200000000000045e+03 2.327543401257536607e+04
1.208500000000000000e+03 2.362809799338772427e+04
1.206799999999999955e+03 2.430762280018211459e+04
1.205099999999999909e+03 2.521800843295862433e+04
1.203390000000000100e+03 2.572768534149604966e+04
1.201690000000000055e+03 2.692979180756598362e+04
1.199990000000000009e+03 2.738375909961800789e+04
1.198289999999999964e+03 2.743658721765212249e+04
1.196579999999999927e+03 2.812670333194869454e+04
1.194880000000000109e+03 2.905925228327620425e+04
1.193170000000000073e+03 2.985508758870916790e+04
1.191470000000000027e+03 3.066035737333016004e+04
1.189759999999999991e+03 3.151091186989948619e+04
1.188059999999999945e+03 3.222990248781393166e+04
1.186349999999999909e+03 3.243317617551959120e+04
1.184650000000000091e+03 3.287188762672748999e+04
1.182940000000000055e+03 3.415088050556951202e+04
1.181230000000000018e+03 3.461773256823650445e+04
1.179529999999999973e+03 3.537402486004927778e+04
1.177819999999999936e+03 3.669159611385263270e+04
1.176109999999999900e+03 3.752002655148098711e+04
1.174400000000000091e+03 3.704631617293425370e+04
1.172690000000000055e+03 3.727846497821254889e+04
1.170980000000000018e+03 3.967547296731581446e+04
1.169269999999999982e+03 3.955134014024407952e+04
1.167559999999999945e+03 4.000406649699731497e+04
1.165849999999999909e+03 4.082765203757552081e+04
1.164140000000000100e+03 4.139109676197866793e+04
1.162430000000000064e+03 4.200440067020684364e+04
1.160720000000000027e+03 4.321256376225996064e+04
1.159009999999999991e+03 4.326558603813809168e+04
1.157289999999999964e+03 4.429587574719716213e+04
1.155579999999999927e+03 4.589261556723884132e+04
1.153869999999999891e+03 4.598521457110549090e+04
1.152160000000000082e+03 4.629567275879706722e+04
1.150440000000000055e+03 4.736139508090831805e+04
1.148730000000000018e+03 4.858057081276350073e+04
1.147009999999999991e+03 4.787500902724979096e+04
1.145299999999999955e+03 4.929590230326850724e+04
1.143579999999999927e+03 4.873605641012983688e+04
1.141869999999999891e+03 5.028366723031211586e+04
1.140150000000000091e+03 5.033553722954844125e+04
1.138430000000000064e+03 5.145626476082127192e+04
1.136720000000000027e+03 5.175045148550567683e+04
1.135000000000000000e+03 5.368989490915351780e+04
1.133279999999999973e+03 5.263319586483783496e+04
1.131559999999999945e+03 5.348335435255861375e+04
1.129839999999999918e+03 5.459337037231585418e+04
1.128130000000000109e+03 5.572984972217949689e+04
1.126410000000000082e+03 5.606758163431176217e+04
1.124690000000000055e+03 5.698717107848050364e+04
1.122970000000000027e+03 5.730561805468569219e+04
1.121250000000000000e+03 5.830192256292734237e+04
1.119519999999999982e+03 5.782747466362490377e+04
1.117799999999999955e+03 5.863649340763736109e+04
1.116079999999999927e+03 5.940336968368628004e+04
1.114359999999999900e+03 5.955110349177166063e+04
1.112640000000000100e+03 5.931469483189347375e+04
1.110910000000000082e+03 6.069252961814493756e+04
1.109190000000000055e+03 6.079383519403758692e+04
1.107470000000000027e+03 6.054699830196669791e+04
1.105740000000000009e+03 6.176840236630337313e+04
1.104019999999999982e+03 6.110327971000329126e+04
1.102289999999999964e+03 6.162539634869084693e+04
1.100569999999999936e+03 6.171698792816157220e+04
1.098839999999999918e+03 6.178581714120000834e+04
1.097119999999999891e+03 6.220812295644152618e+04
1.095390000000000100e+03 6.278366474383079913e+04
1.093660000000000082e+03 6.302806240183662158e+04
1.091940000000000055e+03 6.287593915658330661e+04
1.090210000000000036e+03 6.147704938893999497e+04
1.088480000000000018e+03 6.409101549191320373e+04
1.086750000000000000e+03 6.435283746550294745e+04
1.085019999999999982e+03 6.329051530970921158e+04
1.083299999999999955e+03 6.508667641142974026e+04
1.081569999999999936e+03 6.551806682998687029e+04
1.079839999999999918e+03 6.397431311916052073e+04
1.078109999999999900e+03 6.632641527895069157e+04
1.076369999999999891e+03 6.527074258998835285e+04
1.074640000000000100e+03 6.612255565789373941e+04
1.072910000000000082e+03 6.629122459641566093e+04
1.071180000000000064e+03 6.570574940555410285e+04
1.069450000000000045e+03 6.629113008530906518e+04
1.067720000000000027e+03 6.635536663568056247e+04
1.065980000000000018e+03 6.727182333377689065e+04
1.064250000000000000e+03 6.722777079226360365e+04
1.062509999999999991e+03 6.732193672742380295e+04
1.060779999999999973e+03 6.718259509402573167e+04
1.059049999999999955e+03 6.695810933124419535e+04
1.057309999999999945e+03 6.719783954096694652e+04
1.055579999999999927e+03 6.711006468630064046e+04
1.053839999999999918e+03 6.781750413308726274e+04
1.052099999999999909e+03 6.770079777943904628e+04
1.050369999999999891e+03 6.825358887038665125e+04
1.048630000000000109e+03 6.755959175380229135e+04
1.046890000000000100e+03 6.825444883678310725e+04
1.045150000000000091e+03 6.816816011932908441e+04
1.043420000000000073e+03 6.770037219338932482e+04
1.041680000000000064e+03 6.820279271299917309e+04
1.039940000000000055e+03 6.889506743217419717e+04
1.038200000000000045e+03 6.768719635091436794e+04
1.036460000000000036e+03 6.891817946921972907e+04
1.034720000000000027e+03 6.844801678709023690e+04
1.032980000000000018e+03 6.760770830452592054e+04
1.031240000000000009e+03 6.717025402152677998e+04
1.029500000000000000e+03 6.830465393809278612e+04
1.027750000000000000e+03 6.703125392087308865e+04
1.026009999999999991e+03 6.735936139863589779e+04
1.024269999999999982e+03 6.729232307596388273e+04
1.022529999999999973e+03 6.627213895285702893e+04
1.020779999999999973e+03 6.680015153941462631e+04
1.019039999999999964e+03 6.658467497750457551e+04
1.017299999999999955e+03 6.641005261515968596e+04
1.015549999999999955e+03 6.648062444386293646e+04
1.013809999999999945e+03 6.592970964271484991e+04
1.012059999999999945e+03 6.692398735193211178e+04
1.010320000000000050e+03 6.577078011198079912e+04
1.008570000000000050e+03 6.576476370171208691e+04
1.006820000000000050e+03 6.612859981032575888e+04
1.005080000000000041e+03 6.598895349320289097e+04
1.003330000000000041e+03 6.510749548233058886e+04
1.001580000000000041e+03 6.479088999034068547e+04
9.998319999999999936e+02 6.402287053338103578e+04
9.980839999999999463e+02 6.364270393221087579e+04
9.963350000000000364e+02 6.326552326042304048e+04
9.945850000000000364e+02 6.323332826533730258e+04
9.928350000000000364e+02 6.313498578913396341e+04
9.910850000000000364e+02 6.238749583181300841e+04
9.893350000000000364e+02 6.132085839337443758e+04
9.875839999999999463e+02 6.157420612598842126e+04
9.858319999999999936e+02 6.129853877668565838e+04
9.840810000000000173e+02 6.141159112554529565e+04
9.823279999999999745e+02 6.077076062285034277e+04
9.805760000000000218e+02 5.956364981831777550e+04
9.788229999999999791e+02 5.837552342564109131e+04
9.770689999999999600e+02 5.860838119156204630e+04
9.753160000000000309e+02 5.781495874006480153e+04
9.735620000000000118e+02 5.702852027827827260e+04
9.718070000000000164e+02 5.688406555279981694e+04
9.700520000000000209e+02 5.611246250225056428e+04
9.682970000000000255e+02 5.556071112663054373e+04
9.665410000000000537e+02 5.403194306474004406e+04
9.647849999999999682e+02 5.377802650869917125e+04
9.630280000000000200e+02 5.281309292813233333e+04
9.612709999999999582e+02 5.271201068423927063e+04
9.595140000000000100e+02 5.215377977701995405e+04
9.577559999999999718e+02 5.221253142221455346e+04
9.559980000000000473e+02 5.212813423481067002e+04
9.542390000000000327e+02 5.127571926118002739e+04
9.524800000000000182e+02 5.105115528558238293e+04
9.507210000000000036e+02 5.038644230801779486e+04
9.489610000000000127e+02 4.997671112068468938e+04
9.472000000000000455e+02 4.938796146931362455e+04
9.454400000000000546e+02 4.789793185436041676e+04
9.436789999999999736e+02 4.726988360580807785e+04
9.419170000000000300e+02 4.771681646924266533e+04
9.401549999999999727e+02 4.690759982202683750e+04
9.383930000000000291e+02 4.635823366416057979e+04
9.366309999999999718e+02 4.540071799564390676e+04
9.348680000000000518e+02 4.457118292999730329e+04
9.331040000000000418e+02 4.401562821251785499e+04
9.313400000000000318e+02 4.339192364478412492e+04
9.295760000000000218e+02 4.212806922679609852e+04
9.278110000000000355e+02 4.159819473222961824e+04
9.260460000000000491e+02 4.146817021746246610e+04
9.242809999999999491e+02 4.058899568249461299e+04
9.225149999999999864e+02 3.923980064596190641e+04
9.207480000000000473e+02 3.883158485272800317e+04
9.189819999999999709e+02 3.681008935066303820e+04
9.172150000000000318e+02 3.692257292175784823e+04
9.154470000000000027e+02 3.639003531073167687e+04
9.136789999999999736e+02 3.498334716908771952e+04
9.119109999999999445e+02 3.390750849682597618e+04
9.101420000000000528e+02 3.394364821673446568e+04
9.083730000000000473e+02 3.245563723569351714e+04
9.066029999999999518e+02 3.165360430606317823e+04
9.048329999999999700e+02 3.097042050505540101e+04
9.030629999999999882e+02 3.041508583267021459e+04
9.012920000000000300e+02 3.045772878550528549e+04
8.995209999999999582e+02 2.942422069643865689e+04
8.977490000000000236e+02 2.790368989144740044e+04
8.959769999999999754e+02 2.727000787393383507e+04
8.942050000000000409e+02 2.630517464389793167e+04
8.924320000000000164e+02 2.569931827126552525e+04
8.906589999999999918e+02 2.512231051539388136e+04
8.888849999999999909e+02 2.462727927539557277e+04
8.871109999999999900e+02 2.470009648134479357e+04
8.853360000000000127e+02 2.391688986144454975e+04
8.835620000000000118e+02 2.307240387385812937e+04
8.817859999999999445e+02 2.310002144675803720e+04
8.800109999999999673e+02 2.250235965197175392e+04
8.782340000000000373e+02 2.265180090465419926e+04
8.764579999999999700e+02 2.227296278965046804e+04
8.746810000000000400e+02 2.150809999376797350e+04
8.729039999999999964e+02 2.228508513081545243e+04
8.711259999999999764e+02 2.204004524468349700e+04
8.693479999999999563e+02 2.186185312028300541e+04
8.675689999999999600e+02 2.194063563020979927e+04
8.657899999999999636e+02 2.250926573057325731e+04
8.640109999999999673e+02 2.246974342137336498e+04
8.622309999999999945e+02 2.303419531814334914e+04
8.604510000000000218e+02 2.335749463395887869e+04
8.586699999999999591e+02 2.360576781286575715e+04
8.568890000000000100e+02 2.417888823933074309e+04
8.551069999999999709e+02 2.533098218581588299e+04
8.533250000000000455e+02 2.635492320827537333e+04
8.515430000000000064e+02 2.778871130670924322e+04
8.497599999999999909e+02 2.898147249608350103e+04
8.479769999999999754e+02 3.083808058975206222e+04
8.461939999999999600e+02 3.243053558771494136e+04
8.444099999999999682e+02 3.499096324729766638e+04
8.426259999999999764e+02 3.582623763939832861e+04
8.408410000000000082e+02 3.819048434946977068e+04
8.390560000000000400e+02 4.017857762018645008e+04
8.372699999999999818e+02 4.190764286503224866e+04
8.354840000000000373e+02 4.408455449855428014e+04
8.336970000000000027e+02 4.549243776217108825e+04
8.319109999999999445e+02 4.760704208703699987e+04
8.301230000000000473e+02 4.921274293923747609e+04
8.283360000000000127e+02 5.170816485268704128e+04
8.265480000000000018e+02 5.282355787989097007e+04
8.247590000000000146e+02 5.448792176253457728e+04
8.229700000000000273e+02 5.558113151736953296e+04
8.211810000000000400e+02 5.748118714439583709e+04
8.193909999999999627e+02 5.823821319609656348e+04
8.176009999999999991e+02 5.953308494763437193e+04
8.158099999999999454e+02 6.060492677904176526e+04
8.140190000000000055e+02 6.065961413783565513e+04
8.122279999999999518e+02 6.162114702401607065e+04
8.104360000000000355e+02 6.255364955881924834e+04
8.086440000000000055e+02 6.395199744846203248e+04
8.068509999999999991e+02 6.457931464153750858e+04
8.050579999999999927e+02 6.513147701680939645e+04
8.032649999999999864e+02 6.574948457427771064e+04
8.014710000000000036e+02 6.545646100345028390e+04
7.996760000000000446e+02 6.646240604514561710e+04
7.978819999999999482e+02 6.673107240683819691e+04
7.960860000000000127e+02 6.681083063839953684e+04
7.942910000000000537e+02 6.734431018995809427e+04
7.924950000000000045e+02 6.650975783538747055e+04
7.906979999999999791e+02 6.647117331521718006e+04
7.889020000000000437e+02 6.635631020153424470e+04
7.871040000000000418e+02 6.657153774685801181e+04
7.853070000000000164e+02 6.475948669866913406e+04
7.835090000000000146e+02 6.494340296565074823e+04
7.817100000000000364e+02 6.465328628804346954e+04
7.799109999999999445e+02 6.375501375475082023e+04
7.781119999999999663e+02 6.322358536577274208e+04
7.763120000000000118e+02 6.284012359903269680e+04
7.745119999999999436e+02 6.175750580328982323e+04
7.727110000000000127e+02 6.121685428305383539e+04
7.709099999999999682e+02 6.040604656040135887e+04
7.691090000000000373e+02 5.936308263533233549e+04
7.673070000000000164e+02 5.886608455211554246e+04
7.655040000000000191e+02 5.751605205041365116e+04
7.637019999999999982e+02 5.710474112856466672e+04
7.618990000000000009e+02 5.679139561462425627e+04
7.600950000000000273e+02 5.604801524811066338e+04
7.582910000000000537e+02 5.579947815836152586e+04
7.564869999999999663e+02 5.601778434537687281e+04
7.546820000000000164e+02 5.551905524544196669e+04
7.528769999999999527e+02 5.523616924847256450e+04
7.510710000000000264e+02 5.484224761685865815e+04
7.492649999999999864e+02 5.438316891431497061e+04
7.474579999999999700e+02 5.444105422923991864e+04
7.456509999999999536e+02 5.382178229924346670e+04
7.438440000000000509e+02 5.381935312432558567e+04
7.420359999999999445e+02 5.446488753177697072e+04
7.402279999999999518e+02 5.304126452021903242e+04
7.384189999999999827e+02 5.382860474275816523e+04
7.366100000000000136e+02 5.319878737210377585e+04
7.348010000000000446e+02 5.324381240825582063e+04
7.329909999999999854e+02 5.314780024292401504e+04
7.311810000000000400e+02 5.317263031011809653e+04
7.293700000000000045e+02 5.353242282717091439e+04
7.275589999999999691e+02 5.358505740237279679e+04
7.257469999999999573e+02 5.357365407858334947e+04
7.239349999999999454e+02 5.408409263846981048e+04
7.221230000000000473e+02 5.415937308203212160e+04
7.203099999999999454e+02 5.471061519029982446e+04
7.184969999999999573e+02 5.511869900767391664e+04
7.166829999999999927e+02 5.561974414051808708e+04
7.148690000000000282e+02 5.536263080780285236e+04
7.130539999999999736e+02 5.575747844112980238e+04
7.112390000000000327e+02 5.550816743413521908e+04
7.094239999999999782e+02 5.649369778681913158e+04
7.076079999999999472e+02 5.679418866851952043e+04
7.057920000000000300e+02 5.727652073503995780e+04
7.039750000000000227e+02 5.707981298076373059e+04
7.021580000000000155e+02 5.727794623635280004e+04
7.003400000000000318e+02 5.684203932113938208e+04
6.985220000000000482e+02 5.772897324074023345e+04
6.967039999999999509e+02 5.853574799515533959e+04
6.948849999999999909e+02 5.886348214101990743e+04
6.930660000000000309e+02 5.949205694655135449e+04
6.912459999999999809e+02 5.902559079314125120e+04
6.894260000000000446e+02 5.937296512415431789e+04
6.876059999999999945e+02 6.015917993959059822e+04
6.857849999999999682e+02 6.004835335785569623e+04
6.839629999999999654e+02 6.042548511586737004e+04
6.821420000000000528e+02 6.065933906460476283e+04
6.803189999999999600e+02 6.103726903283136198e+04
6.784969999999999573e+02 6.125692119178368011e+04
6.766730000000000018e+02 6.170164884362730663e+04
6.748500000000000227e+02 6.220909868619665212e+04
6.730259999999999536e+02 6.231950599084945861e+04
6.712019999999999982e+02 6.254575307798755239e+04
6.693769999999999527e+02 6.364595727585490386e+04
6.675520000000000209e+02 6.429700108048229595e+04
6.657259999999999991e+02 6.444600164429213328e+04
6.638999999999999773e+02 6.506284163904043089e+04
6.620729999999999791e+02 6.530963804123170848e+04
6.602459999999999809e+02 6.643227369844356144e+04
6.584189999999999827e+02 6.711474861067603342e+04
6.565910000000000082e+02 6.716617949043634871e+04
6.547630000000000337e+02 6.799744944920306443e+04
6.529339999999999691e+02 6.889767502337292535e+04
6.511050000000000182e+02 6.973273950043867808e+04
6.492749999999999773e+02 7.066875924059023964e+04
6.474450000000000500e+02 7.193761770743083616e+04
6.456150000000000091e+02 7.340831490096051130e+04
6.437839999999999918e+02 7.370596691693851608e+04
6.419529999999999745e+02 7.524245748330245260e+04
6.401209999999999809e+02 7.647290251941210590e+04
6.382889999999999873e+02 7.826718592950823950e+04
6.364560000000000173e+02 7.969742345645489695e+04
6.346230000000000473e+02 8.108649918089222047e+04
6.327899999999999636e+02 8.193641310282026825e+04
6.309560000000000173e+02 8.390428070023900364e+04
6.291219999999999573e+02 8.590598631855632993e+04
6.272870000000000346e+02 8.821964525908387441e+04
6.254519999999999982e+02 8.978814204382164462e+04
6.236159999999999854e+02 9.219059179729651078e+04
6.217799999999999727e+02 9.424987921819687472e+04
6.199439999999999600e+02 9.693100430652273644e+04
6.181069999999999709e+02 9.965808192150351533e+04
6.162690000000000055e+02 1.025741117977454560e+05
6.144320000000000164e+02 1.056428643053505803e+05
6.125929999999999609e+02 1.074676834909307363e+05
6.107549999999999955e+02 1.112622253078740468e+05
6.089160000000000537e+02 1.149787188550020219e+05
6.070760000000000218e+02 1.182851638666319486e+05
6.052359999999999900e+02 1.204084458375853865e+05
6.033959999999999582e+02 1.237015647678623063e+05
6.015549999999999500e+02 1.262366347195958660e+05
5.997140000000000555e+02 1.282745414533866278e+05
5.978719999999999573e+02 1.317493988540051505e+05
5.960299999999999727e+02 1.333580928593183053e+05
5.941870000000000118e+02 1.363277371766376600e+05
5.923440000000000509e+02 1.377142179211927287e+05
5.905009999999999764e+02 1.400315350929835113e+05
5.886570000000000391e+02 1.403548021330128540e+05
5.868120000000000118e+02 1.416790187748757016e+05
5.849679999999999609e+02 1.448339582254643319e+05
5.831219999999999573e+02 1.460799602746882010e+05
5.812770000000000437e+02 1.473316851326378237e+05
5.794310000000000400e+02 1.496893590593218687e+05
5.775839999999999463e+02 1.481639817880463088e+05
5.757369999999999663e+02 1.514944402332076570e+05
5.738899999999999864e+02 1.526347343948059133e+05
5.720420000000000300e+02 1.539479769137137337e+05
5.701939999999999600e+02 1.548390549711179920e+05
5.683450000000000273e+02 1.553020810298545111e+05
5.664959999999999809e+02 1.574359424490506644e+05
5.646459999999999582e+02 1.582817515134092246e+05
5.627960000000000491e+02 1.582183957600942813e+05
5.609460000000000264e+02 1.608958751891058637e+05
5.590950000000000273e+02 1.629283018178266648e+05
5.572430000000000518e+02 1.638516753788402712e+05
5.553909999999999627e+02 1.675038837656252435e+05
5.535389999999999873e+02 1.698089269781815819e+05
5.516870000000000118e+02 1.709438050165092573e+05
5.498329999999999700e+02 1.737357410233597329e+05
5.479800000000000182e+02 1.776174000169727369e+05
5.461259999999999764e+02 1.801470050507683191e+05
5.442709999999999582e+02 1.837035558568966808e+05
5.424160000000000537e+02 1.880739409532412828e+05
5.405610000000000355e+02 1.915041603398021252e+05
5.387050000000000409e+02 1.951823250520386500e+05
5.368490000000000464e+02 2.010523238757804502e+05
5.349919999999999618e+02 2.060582676676795818e+05
5.331349999999999909e+02 2.108560453922766610e+05
5.312780000000000200e+02 2.157526570495716878e+05
5.294199999999999591e+02 2.218992132278854260e+05
5.275610000000000355e+02 2.288657136587901623e+05
5.257019999999999982e+02 2.358560476644893060e+05
5.238429999999999609e+02 2.434242152449827990e+05
5.219829999999999472e+02 2.504963266304470890e+05
5.201230000000000473e+02 2.571272714116094867e+05
5.182619999999999436e+02 2.642241596394538647e+05
5.164009999999999536e+02 2.726638810838037753e+05
5.145399999999999636e+02 2.825974357446592767e+05
5.126779999999999973e+02 2.905539334040948888e+05
5.108149999999999977e+02 2.983503737931051292e+05
5.089519999999999982e+02 3.043526470399468089e+05
5.070889999999999986e+02 3.117887531446199864e+05
5.052250000000000227e+02 3.208438015302843414e+05
5.033609999999999900e+02 3.258366825942987343e+05
5.014959999999999809e+02 3.344035055802449351e+05
4.996309999999999718e+02 3.378621610649633221e+05
4.977649999999999864e+02 3.449387581123615964e+05
4.958990000000000009e+02 3.492101874788578716e+05
4.940330000000000155e+02 3.539904491644521477e+05
4.921659999999999968e+02 3.554406519634206197e+05
4.902989999999999782e+02 3.579496869017166318e+05
4.884309999999999832e+02 3.599106625937495846e+05
4.865629999999999882e+02 3.604384702452432830e+05
4.846940000000000168e+02 3.625172182906441740e+05
4.828249999999999886e+02 3.639107981155426824e+05
4.809549999999999841e+02 3.639893179743258515e+05
4.790849999999999795e+02 3.657546694325473509e+05
4.772139999999999986e+02 3.647879605644383118e+05
4.753430000000000177e+02 3.629600831156119239e+05
4.734719999999999800e+02 3.638600370860681287e+05
4.716000000000000227e+02 3.636389302796841366e+05
4.697280000000000086e+02 3.648206547123307828e+05
4.678550000000000182e+02 3.632193180075368728e+05
4.659820000000000277e+02 3.649148123614251963e+05
4.641080000000000041e+02 3.632292452170800534e+05
4.622339999999999804e+02 3.618835089509724639e+05
4.603589999999999804e+02 3.606207108256457723e+05
4.584839999999999804e+02 3.597727433980156784e+05
4.566089999999999804e+02 3.600556066680822405e+05
4.547330000000000041e+02 3.592894076274568215e+05
4.528570000000000277e+02 3.599690391038907692e+05
4.509800000000000182e+02 3.580636079082619399e+05
4.491019999999999754e+02 3.547221137693976634e+05
4.472250000000000227e+02 3.530883431560294121e+05
4.453460000000000036e+02 3.511866159581565880e+05
4.434680000000000177e+02 3.508446122857797891e+05
4.415889999999999986e+02 3.471585451275333762e+05
4.397090000000000032e+02 3.449754142119557364e+05
4.378290000000000077e+02 3.418961130899252021e+05
4.359490000000000123e+02 3.404606417614417151e+05
4.340679999999999836e+02 3.386271062229502713e+05
4.321859999999999786e+02 3.359455062027004315e+05
4.303050000000000068e+02 3.314046297984819394e+05
4.284220000000000255e+02 3.312677944558398449e+05
4.265389999999999873e+02 3.272577883630993310e+05
4.246560000000000059e+02 3.263276115202603396e+05
4.227730000000000246e+02 3.244432639273229870e+05
4.208890000000000100e+02 3.209878509460697533e+05
4.190040000000000191e+02 3.196213723043167847e+05
4.171190000000000282e+02 3.176487225495534367e+05
4.152330000000000041e+02 3.158660067711857846e+05
4.133469999999999800e+02 3.089311196982074180e+05
4.114610000000000127e+02 3.120860613306182786e+05
4.095740000000000123e+02 3.099139364853033330e+05
4.076870000000000118e+02 3.094886401636809460e+05
4.057989999999999782e+02 3.078162770008430234e+05
4.039110000000000014e+02 3.061727421799045405e+05
4.020219999999999914e+02 3.030421401540681254e+05
4.001329999999999814e+02 3.010163662882417557e+05
3.982429999999999950e+02 3.001785248536423896e+05
3.963530000000000086e+02 2.996545113970674574e+05
3.944630000000000223e+02 2.982913259185169591e+05
3.925720000000000027e+02 2.967300724161088001e+05
3.906800000000000068e+02 2.947137506166478852e+05
3.887880000000000109e+02 2.931472564309510053e+05
3.868960000000000150e+02 2.911505898590182769e+05
3.850029999999999859e+02 2.905488545344665763e+05
3.831100000000000136e+02 2.896519466414043563e+05
3.812160000000000082e+02 2.879369696310776053e+05
3.793220000000000027e+02 2.877148198698693886e+05
3.774270000000000209e+02 2.862146006265584147e+05
3.755319999999999823e+02 2.842562084498988115e+05
3.736370000000000005e+02 2.838836433398904628e+05
3.717400000000000091e+02 2.819501112864001771e+05
3.698439999999999941e+02 2.819023030307824956e+05
3.679470000000000027e+02 2.778264244715019013e+05
3.660489999999999782e+02 2.778694753344964120e+05
3.641519999999999868e+02 2.764362500867175986e+05
3.622529999999999859e+02 2.755110566165004857e+05
3.603539999999999850e+02 2.750526894821025780e+05
3.584549999999999841e+02 2.737711486835238175e+05
3.565550000000000068e+02 2.717695364844079595e+05
3.546549999999999727e+02 2.719517504381624749e+05
3.527540000000000191e+02 2.696978926253858372e+05
3.508530000000000086e+02 2.682528607824344654e+05
3.489510000000000218e+02 2.685287568067653920e+05
3.470489999999999782e+02 2.675374786177801434e+05
3.451469999999999914e+02 2.649580262154786033e+05
3.432440000000000282e+02 2.642195012224853854e+05
3.413399999999999750e+02 2.627299033638716210e+05
3.394359999999999786e+02 2.606781309253697691e+05
3.375319999999999823e+02 2.594811839069798298e+05
3.356270000000000095e+02 2.584941635645137285e+05
3.337219999999999800e+02 2.574269684587291849e+05
3.318159999999999741e+02 2.557716996619113779e+05
3.299089999999999918e+02 2.530633568986980245e+05
3.280029999999999859e+02 2.538757381164024118e+05
3.260950000000000273e+02 2.528701459808667132e+05
3.241879999999999882e+02 2.513072778262487554e+05
3.222799999999999727e+02 2.513393351542217424e+05
3.203709999999999809e+02 2.507253176891343901e+05
3.184619999999999891e+02 2.478241247260438395e+05
3.165520000000000209e+02 2.504468566021653824e+05
3.146419999999999959e+02 2.479334127963717619e+05
3.127320000000000277e+02 2.472397933086630073e+05
3.108210000000000264e+02 2.452260982002659875e+05
3.089089999999999918e+02 2.449763271950961207e+05
3.069970000000000141e+02 2.454073801398982177e+05
3.050849999999999795e+02 2.444162570346723078e+05
3.031720000000000255e+02 2.418550575722916401e+05
3.012590000000000146e+02 2.409566818756820285e+05
2.993450000000000273e+02 2.398182294534195389e+05
2.974300000000000068e+02 2.397507000289861171e+05
2.955160000000000196e+02 2.377328946774986689e+05
2.936000000000000227e+02 2.363041113713602244e+05
2.916850000000000023e+02 2.360620521381677536e+05
2.897690000000000055e+02 2.335889153494792699e+05
2.878519999999999754e+02 2.308937007284877473e+05
2.859350000000000023e+02 2.312623091355005163e+05
2.840169999999999959e+02 2.304578393409416603e+05
2.820989999999999895e+02 2.290371923897046072e+05
2.801800000000000068e+02 2.272534668674346176e+05
2.782610000000000241e+02 2.269735640037076373e+05
2.763419999999999845e+02 2.261804837985237245e+05
2.744220000000000255e+02 2.244053245602395036e+05
2.725009999999999764e+02 2.235150860114700918e+05
2.705799999999999841e+02 2.222866697513971885e+05
2.686589999999999918e+02 2.209750757800207648e+05
2.667370000000000232e+02 2.203314020356102264e+05
2.648149999999999977e+02 2.191205503948284604e+05
2.628919999999999959e+02 2.189656186107807735e+05
2.609689999999999941e+02 2.184645087451978179e+05
2.590450000000000159e+02 2.163593183659245260e+05
2.571209999999999809e+02 2.153739497198555910e+05
2.551959999999999980e+02 2.151985001894792949e+05
2.532709999999999866e+02 2.156848722069506766e+05
2.513449999999999989e+02 2.140351629693050345e+05
2.494190000000000111e+02 2.147422750940540864e+05
2.474919999999999902e+02 2.135713055926837842e+05
2.455649999999999977e+02 2.138381572681589168e+05
2.436370000000000005e+02 2.138129269463197561e+05
2.417090000000000032e+02 2.133255176156803791e+05
2.397800000000000011e+02 2.135360259163391893e+05
2.378509999999999991e+02 2.127903550224558567e+05
2.359219999999999970e+02 2.127895049340303522e+05
2.339919999999999902e+02 2.131905720124278159e+05
2.320610000000000070e+02 2.123315559788186220e+05
2.301299999999999955e+02 2.128443603788944602e+05
2.281990000000000123e+02 2.117479852126553596e+05
2.262669999999999959e+02 2.124225264694528014e+05
2.243340000000000032e+02 2.130309838701682456e+05
2.224010000000000105e+02 2.115072613324106496e+05
2.204679999999999893e+02 2.109633588561800425e+05
2.185339999999999918e+02 2.113183720584290568e+05
2.165999999999999943e+02 2.094252051359815523e+05
2.146649999999999920e+02 2.102369535194703494e+05
2.127299999999999898e+02 2.096325215919428156e+05
2.107940000000000111e+02 2.099030045976156252e+05
2.088569999999999993e+02 2.095864022567923821e+05
2.069209999999999923e+02 2.092105241743680963e+05
2.049830000000000041e+02 2.094936555233110848e+05
2.030449999999999875e+02 2.097366060017003911e+05
2.011069999999999993e+02 2.086963756095359859e+05
1.991680000000000064e+02 2.082890590311601991e+05
1.972290000000000134e+02 2.088845613955256122e+05
1.952899999999999920e+02 2.081778827026322833e+05
1.933489999999999895e+02 2.078092117607605469e+05
1.914089999999999918e+02 2.090112650772877678e+05
1.894670000000000130e+02 2.087033255841435166e+05
1.875260000000000105e+02 2.080541103493981936e+05
1.855840000000000032e+02 2.099558077138712688e+05
1.836409999999999911e+02 2.090824173969994299e+05
1.816980000000000075e+02 2.093378452750853903e+05
1.797539999999999907e+02 2.090821850975494890e+05
1.778100000000000023e+02 2.104323429277847463e+05
1.758650000000000091e+02 2.105504123279284977e+05
1.739199999999999875e+02 2.122002995485604624e+05
1.719749999999999943e+02 2.113460045896805823e+05
1.700289999999999964e+02 2.116766207323814451e+05
1.680819999999999936e+02 2.140611476955218823e+05
1.661349999999999909e+02 2.128074921042956412e+05
1.641870000000000118e+02 2.157497469584615028e+05
1.622390000000000043e+02 2.158038190706887690e+05
1.602909999999999968e+02 2.165137084409774689e+05
1.583420000000000130e+02 2.182405077876081050e+05
1.563919999999999959e+02 2.193632168290061236e+05
1.544420000000000073e+02 2.198437427530327986e+05
1.524919999999999902e+02 2.212170855596881302e+05
1.505409999999999968e+02 2.207713375915791257e+05
1.485889999999999986e+02 2.224184985668422887e+05
1.466370000000000005e+02 2.213524760489161126e+05
1.446850000000000023e+02 2.227812700378005975e+05
1.427319999999999993e+02 2.240799725000439503e+05
1.407779999999999916e+02 2.268755831534937024e+05
1.388240000000000123e+02 2.277210099375508726e+05
1.368700000000000045e+02 2.267282528522154316e+05
1.349149999999999920e+02 2.270194034875915386e+05
1.329590000000000032e+02 2.276234615612378402e+05
1.310029999999999859e+02 2.290323353889029822e+05
1.290469999999999970e+02 2.310370249705870228e+05
1.270900000000000034e+02 2.311376215195647965e+05
1.251320000000000050e+02 2.327931247531059489e+05
1.231740000000000066e+02 2.323204433636922040e+05
1.212159999999999940e+02 2.323285773513235908e+05
1.192570000000000050e+02 2.315896175520603429e+05
1.172980000000000018e+02 2.314684729412108718e+05
1.153379999999999939e+02 2.299182341661077226e+05
1.133769999999999953e+02 2.268249009435872140e+05
1.114159999999999968e+02 2.268403825319287716e+05
1.094549999999999983e+02 2.294536789311324246e+05
1.074929999999999950e+02 2.295748804107383185e+05
1.055300000000000011e+02 2.249979866872938001e+05
1.035669999999999931e+02 2.150109073967744189e+05
1.016039999999999992e+02 2.074956425391802040e+05
9.963989999999999725e+01 2.019792909950072353e+05
9.767539999999999623e+01 2.002157895944253542e+05
9.571040000000000703e+01 1.996451471941192285e+05
9.374490000000000123e+01 2.033763636521458684e+05
9.177899999999999636e+01 2.038824298752488103e+05
8.981250000000000000e+01 2.030573636334374023e+05
8.784550000000000125e+01 2.030301558239152946e+05
8.587800000000000011e+01 2.041068063045949675e+05
8.390999999999999659e+01 2.030773149333527545e+05
8.194150000000000489e+01 1.975366815680289001e+05
7.997239999999999327e+01 1.912669149608481966e+05
7.800289999999999679e+01 1.899249971712528204e+05
7.603289999999999793e+01 1.867419369608774141e+05
7.406239999999999668e+01 1.823497341874177800e+05
7.209130000000000393e+01 1.711893975650010689e+05
7.011979999999999791e+01 1.492699092288216052e+05
6.814770000000000039e+01 1.210912867399023671e+05
6.617520000000000380e+01 9.016401227134310466e+04
6.420210000000000150e+01 6.016250334610730351e+04
6.222849999999999682e+01 3.667595098419050191e+04
6.025439999999999685e+01 2.103285504302841218e+04
5.827980000000000160e+01 1.095081538002064917e+04
