1.838160000000000082e+03 -6.446524019893695368e+02
1.836589999999999918e+03 -1.962001126804098021e+02
1.835029999999999973e+03 -3.059120101574080763e+00
1.833460000000000036e+03 -9.253274486082409567e+01
1.831890000000000100e+03 -7.826920830604831281e+01
1.830329999999999927e+03 -1.085176770625675999e+02
1.828759999999999991e+03 -3.556800545760033856e+02
1.827190000000000055e+03 -1.052052707754046423e+02
1.825619999999999891e+03 -3.499332566077828233e+01
1.824049999999999955e+03 -1.241442192321283073e+02
1.822490000000000009e+03 -3.055083000885024376e+02
1.820920000000000073e+03 -2.893851077280505706e+02
1.819349999999999909e+03 -3.417247540535863664e+02
1.817779999999999973e+03 -3.047272390650796297e+02
1.816210000000000036e+03 -3.680925627625510970e+02
1.814640000000000100e+03 -7.322072514599494752e+01
1.813069999999999936e+03 -2.034117262154068158e+02
1.811490000000000009e+03 -1.601135604978608171e+02
1.809920000000000073e+03 -2.328300022429521050e+02
1.808349999999999909e+03 -7.970928267401177436e+01
1.806779999999999973e+03 -1.571514017910449184e+02
1.805210000000000036e+03 -3.124563595940471714e+02
1.803630000000000109e+03 -1.910709656211347465e+02
1.802059999999999945e+03 -2.509013640998109622e+02
1.800490000000000009e+03 -3.296946012644639268e+02
1.798910000000000082e+03 -2.194967750567720941e+02
1.797339999999999918e+03 -2.617154528970986576e+02
1.795769999999999982e+03 -1.989969694233950577e+02
1.794190000000000055e+03 -3.443867109809307294e+02
1.792619999999999891e+03 -2.133936681829000008e+02
1.791039999999999964e+03 -3.237083755159619614e+02
1.789470000000000027e+03 -2.356407733936011937e+02
1.787890000000000100e+03 -4.266804465021832584e+02
1.786309999999999945e+03 -3.099824833965758444e+02
1.784740000000000009e+03 -4.327029239395997138e+02
1.783160000000000082e+03 -3.414299266095113126e+02
1.781579999999999927e+03 -4.117192930652381619e+02
1.780009999999999991e+03 -2.775277762736441218e+02
1.778430000000000064e+03 -3.446421085048896202e+02
1.776849999999999909e+03 -3.657188045219591004e+02
1.775269999999999982e+03 -3.328578643248438311e+02
1.773690000000000055e+03 -3.776592879135387193e+02
1.772109999999999900e+03 -3.796230752880528598e+02
1.770529999999999973e+03 -4.100492264483928011e+02
1.768950000000000045e+03 -3.170377413945388980e+02
1.767369999999999891e+03 -2.429886201265035197e+02
1.765789999999999964e+03 -4.236018626442819368e+02
1.764210000000000036e+03 -3.731774689478752407e+02
1.762630000000000109e+03 -3.149154390372968919e+02
1.761049999999999955e+03 -3.783157729125268816e+02
1.759470000000000027e+03 -3.625784705735732132e+02
1.757890000000000100e+03 -3.200035320204369782e+02
1.756309999999999945e+03 -2.947909572531207232e+02
1.754720000000000027e+03 -1.906801820425607730e+02
1.753140000000000100e+03 -3.991920966429843247e+02
1.751559999999999945e+03 -3.359663750292347686e+02
1.749970000000000027e+03 -2.680417368529542728e+02
1.748390000000000100e+03 -3.847405046069397940e+02
1.746799999999999955e+03 -4.446398778830189258e+02
1.745220000000000027e+03 -3.829631350047493470e+02
1.743630000000000109e+03 -4.095865197331822856e+02
1.742049999999999955e+03 -5.575342662226594257e+02
1.740460000000000036e+03 -3.349816624034410779e+02
1.738880000000000109e+03 -3.047538982606638456e+02
1.737289999999999964e+03 -5.141253058937909373e+02
1.735710000000000036e+03 -3.561220311187680636e+02
1.734119999999999891e+03 -4.833174502042438689e+02
1.732529999999999973e+03 -3.458747551601554733e+02
1.730940000000000055e+03 -3.847939459864774108e+02
1.729359999999999900e+03 -3.292394117430594633e+02
1.727769999999999982e+03 -2.389826140217337525e+02
1.726180000000000064e+03 -2.416877021708405664e+02
1.724589999999999918e+03 -2.033546761903598963e+02
1.723000000000000000e+03 -4.292835360803092044e+02
1.721410000000000082e+03 -3.531742818406746665e+02
1.719819999999999936e+03 -4.217269134714679240e+02
1.718230000000000018e+03 -3.219414309726780630e+02
1.716640000000000100e+03 -1.640178343443167250e+02
1.715049999999999955e+03 -3.047561235863795446e+02
1.713460000000000036e+03 -5.050562986988588818e+02
1.711869999999999891e+03 -3.864183596817620128e+02
1.710279999999999973e+03 -5.111423065350845718e+02
1.708680000000000064e+03 -4.882606339494195709e+02
1.707089999999999918e+03 -4.716081128320874996e+02
1.705500000000000000e+03 -3.561174775851741288e+02
1.703910000000000082e+03 -4.648887282086852792e+02
1.702309999999999945e+03 -4.183533990395553701e+02
1.700720000000000027e+03 -2.792481816923991573e+02
1.699119999999999891e+03 -2.656359036219801055e+02
1.697529999999999973e+03 -1.657542183041696262e+02
1.695940000000000055e+03 -3.371344188567709352e+02
1.694339999999999918e+03 -2.450068380439697648e+02
1.692740000000000009e+03 -2.595406621709589672e+02
1.691150000000000091e+03 -7.960604091181812692e+01
1.689549999999999955e+03 -1.473629161375065451e+02
1.687960000000000036e+03 -1.194518269077125296e+02
1.686359999999999900e+03 -1.118317532321088947e+02
1.684759999999999991e+03 -1.856730844962876290e+02
1.683170000000000073e+03 4.265282654525071848e+01
1.681569999999999936e+03 -9.841155581764178351e+01
1.679970000000000027e+03 6.736265687968261773e+01
1.678369999999999891e+03 -1.252245353627913573e+02
1.676769999999999982e+03 -4.867313254505279474e+01
1.675170000000000073e+03 -5.648313466709078057e+01
1.673569999999999936e+03 -4.555454172893223586e+01
1.671970000000000027e+03 1.810126462694388465e+02
1.670369999999999891e+03 2.498184293280246493e+02
1.668769999999999982e+03 1.764628074468128034e+02
1.667170000000000073e+03 1.093457806258193159e+02
1.665569999999999936e+03 1.625673488650281797e+02
1.663970000000000027e+03 2.127275121644634055e+02
1.662369999999999891e+03 3.205262705241002550e+02
1.660769999999999982e+03 2.473636239439438214e+02
1.659160000000000082e+03 4.036145434653735720e+02
1.657559999999999945e+03 3.851293282247679599e+02
1.655960000000000036e+03 4.867827080443712475e+02
1.654349999999999909e+03 4.714503791305651248e+02
1.652750000000000000e+03 4.749811902897126856e+02
1.651150000000000091e+03 3.225505965090742393e+02
1.649539999999999964e+03 4.040350191600227845e+02
1.647940000000000055e+03 5.103818567189337045e+02
1.646329999999999927e+03 5.996441946552986337e+02
1.644730000000000018e+03 4.350684635537545546e+02
1.643119999999999891e+03 5.648087167755438713e+02
1.641509999999999991e+03 5.030880490033996466e+02
1.639910000000000082e+03 6.826285855207497661e+02
1.638299999999999955e+03 7.921858330340292014e+02
1.636690000000000055e+03 7.164821595533976506e+02
1.635089999999999918e+03 6.969389636896266893e+02
1.633480000000000018e+03 7.894132054944129777e+02
1.631869999999999891e+03 6.641265263052919181e+02
1.630259999999999991e+03 6.260789261222453206e+02
1.628650000000000091e+03 8.086704049452819163e+02
1.627039999999999964e+03 7.334009627743980673e+02
1.625430000000000064e+03 7.544705996096017770e+02
1.623819999999999936e+03 8.251793154508850421e+02
1.622210000000000036e+03 6.134271102982565935e+02
1.620599999999999909e+03 7.727139841517091554e+02
1.618990000000000009e+03 6.029399370112441829e+02
1.617380000000000109e+03 7.716049688768544002e+02
1.615769999999999982e+03 7.261090797485558141e+02
1.614160000000000082e+03 6.822522696263367834e+02
1.612549999999999955e+03 8.090345385102045839e+02
1.610930000000000064e+03 7.094381286905590969e+02
1.609319999999999936e+03 7.446987983133367379e+02
1.607710000000000036e+03 8.094985469421990274e+02
1.606089999999999918e+03 6.868203465554070135e+02
1.604480000000000018e+03 7.918984959231784160e+02
1.602859999999999900e+03 7.807991832364168658e+02
1.601250000000000000e+03 7.744557333430930157e+02
1.599630000000000109e+03 7.851353083563517430e+02
1.598019999999999982e+03 5.420702592019479198e+02
1.596400000000000091e+03 5.714287219152247417e+02
1.594789999999999964e+03 6.302420734997285763e+02
1.593170000000000073e+03 7.184794239130351343e+02
1.591549999999999955e+03 7.463563402935287741e+02
1.589940000000000055e+03 5.655874143497712794e+02
1.588319999999999936e+03 6.862432184302888345e+02
1.586700000000000045e+03 7.219385884780022025e+02
1.585079999999999927e+03 6.371735244929077453e+02
1.583470000000000027e+03 7.162616427537250274e+02
1.581849999999999909e+03 5.960754664686610340e+02
1.580230000000000018e+03 6.874288561507783015e+02
1.578609999999999900e+03 6.492218118001001130e+02
1.576990000000000009e+03 6.032543334166075510e+02
1.575369999999999891e+03 7.657264210003158951e+02
1.573750000000000000e+03 6.504380745512098656e+02
1.572130000000000109e+03 6.447892940693091077e+02
1.570500000000000000e+03 6.160684171508037252e+02
1.568880000000000109e+03 4.886990128376455687e+02
1.567259999999999991e+03 5.694691744916926837e+02
1.565640000000000100e+03 5.454789021129254252e+02
1.564019999999999982e+03 3.197281957013619831e+02
1.562390000000000100e+03 4.345066155326348962e+02
1.560769999999999982e+03 5.307352852898220590e+02
1.559150000000000091e+03 1.105903521014199214e+03
1.557519999999999982e+03 2.676801617192144477e+03
1.555900000000000091e+03 3.425149229085272964e+03
1.554269999999999982e+03 2.786927191408321960e+03
1.552650000000000091e+03 1.739754179470201052e+03
1.551019999999999982e+03 1.222112007938358147e+03
1.549400000000000091e+03 9.878183721689929371e+02
1.547769999999999982e+03 4.537560667822472169e+02
1.546140000000000100e+03 4.717338173390489828e+02
1.544519999999999982e+03 2.669593679399986286e+02
1.542890000000000100e+03 2.283169846418968518e+02
1.541259999999999991e+03 2.649146572873432888e+02
1.539640000000000100e+03 2.723593942586121557e+02
1.538009999999999991e+03 1.862369330491637811e+02
1.536380000000000109e+03 -1.044547221674292814e+01
1.534750000000000000e+03 1.952121784608971211e+02
1.533119999999999891e+03 2.319098850820810185e+02
1.531490000000000009e+03 3.347476476468109468e+02
1.529859999999999900e+03 1.292254661550869059e+02
1.528230000000000018e+03 1.813433406069016200e+02
1.526599999999999909e+03 1.922012710022645479e+02
1.524970000000000027e+03 1.754992573411691410e+02
1.523339999999999918e+03 1.159372996236197650e+02
1.521710000000000036e+03 2.402153978496171476e+02
1.520069999999999936e+03 3.722294925407004484e+02
1.518440000000000055e+03 3.831879483957745833e+02
1.516809999999999945e+03 1.537864601943874732e+02
1.515180000000000064e+03 3.424250279365442111e+02
1.513539999999999964e+03 3.489005766193549789e+02
1.511910000000000082e+03 2.468195019905797380e+02
1.510269999999999982e+03 3.742759012940587127e+02
1.508640000000000100e+03 4.786751842943594966e+02
1.507000000000000000e+03 5.495124342184972193e+02
1.505369999999999891e+03 2.167920748478718451e+02
1.503730000000000018e+03 3.412101753926726815e+02
1.502099999999999909e+03 1.782701736511226045e+02
1.500460000000000036e+03 3.715691248165858269e+02
1.498819999999999936e+03 1.095086249171836243e+02
1.497190000000000055e+03 1.713892824902359280e+02
1.495549999999999955e+03 1.691096332114975667e+02
1.493910000000000082e+03 4.027053286788941477e+01
1.492269999999999982e+03 1.022719814594165655e+02
1.490640000000000100e+03 -5.548639996740166680e+01
1.489000000000000000e+03 -1.689041007552077645e+02
1.487359999999999900e+03 -1.479812526078894734e+02
1.485720000000000027e+03 -9.501785552543515223e+01
1.484079999999999927e+03 2.186090492159564747e+00
1.482440000000000055e+03 -1.124694145551184192e+02
1.480799999999999955e+03 -2.620843706672567350e+02
1.479160000000000082e+03 -2.029587778442692070e+02
1.477519999999999982e+03 -4.926360861391003709e-01
1.475869999999999891e+03 -1.621833411929728754e+02
1.474230000000000018e+03 -3.206358543149726756e+02
1.472589999999999918e+03 -2.856478185018422664e+02
1.470950000000000045e+03 -2.902192337535780098e+02
1.469299999999999955e+03 -2.947465053642335988e+02
1.467660000000000082e+03 -3.555365754960912454e+02
1.466019999999999982e+03 -5.942860966928201378e+02
1.464369999999999891e+03 -4.054907309920272382e+02
1.462730000000000018e+03 -5.816589070688860375e+02
1.461079999999999927e+03 -4.886817002413990849e+02
1.459440000000000055e+03 -4.472685311983914289e+02
1.457789999999999964e+03 -4.455094832442009647e+02
1.456150000000000091e+03 -2.704149690813137568e+02
1.454500000000000000e+03 -5.008740800004234188e+02
1.452849999999999909e+03 -3.394921459775687254e+02
1.451210000000000036e+03 -3.663754905100722681e+02
1.449559999999999945e+03 -4.614117153605238855e+02
1.447910000000000082e+03 -2.666068952690111473e+02
1.446259999999999991e+03 -3.388610302355300519e+02
1.444609999999999900e+03 -2.684741202600926044e+02
1.442970000000000027e+03 -2.132537311185078579e+02
1.441319999999999936e+03 -3.611849800163654436e+02
1.439670000000000073e+03 -2.482751839722695877e+02
1.438019999999999982e+03 1.007565701379644452e+01
1.436369999999999891e+03 -2.466324570581746229e+02
1.434720000000000027e+03 -3.987995261881933402e+02
1.433059999999999945e+03 -4.145164920570841787e+02
1.431410000000000082e+03 -4.045012225459413457e+02
1.429759999999999991e+03 -4.594449080928407056e+02
1.428109999999999900e+03 -4.009475486977826222e+02
1.426460000000000036e+03 -6.177091443607587280e+02
1.424799999999999955e+03 -7.375193914688734367e+02
1.423150000000000091e+03 -5.109986484906985424e+02
1.421500000000000000e+03 -4.220368605705680238e+02
1.419839999999999918e+03 -3.785229763162751624e+02
1.418190000000000055e+03 -3.862788497549918247e+02
1.416529999999999973e+03 -4.680821278374896792e+02
1.414880000000000109e+03 -2.778556626350582519e+02
1.413220000000000027e+03 -2.568761030543391826e+02
1.411569999999999936e+03 -4.335672992107556638e+02
1.409910000000000082e+03 -3.944049019668163965e+02
1.408259999999999991e+03 -4.713137594820873346e+02
1.406599999999999909e+03 -3.399685245749387832e+02
1.404940000000000055e+03 -4.002817457037490385e+02
1.403279999999999973e+03 -4.423534228685402923e+02
1.401630000000000109e+03 -3.667973543442894879e+02
1.399970000000000027e+03 -5.172861938458645454e+02
1.398309999999999945e+03 -5.215334893834042305e+02
1.396650000000000091e+03 -4.579392409569118172e+02
1.394990000000000009e+03 -3.400034485663964006e+02
1.393329999999999927e+03 -3.818261122118456115e+02
1.391670000000000073e+03 -4.160072318932652706e+02
1.390009999999999991e+03 -3.628468076106601075e+02
1.388349999999999909e+03 -3.156448393640202994e+02
1.386690000000000055e+03 -4.611013271533574880e+02
1.385029999999999973e+03 -4.003162709786593041e+02
1.383369999999999891e+03 -3.439896708399282943e+02
1.381700000000000045e+03 -1.839047252840573492e+02
1.380039999999999964e+03 -3.516947869524265116e+02
1.378380000000000109e+03 -2.847433046567675774e+02
1.376710000000000036e+03 -3.576327246418113646e+02
1.375049999999999955e+03 -3.777979041532416886e+02
1.373390000000000100e+03 -3.814215397006501007e+02
1.371720000000000027e+03 -3.234853252266111667e+02
1.370059999999999945e+03 -4.291256225811193872e+02
1.368390000000000100e+03 -4.026055678768643702e+02
1.366730000000000018e+03 -4.120625270384680334e+02
1.365059999999999945e+03 -5.234586321040078474e+02
1.363390000000000100e+03 -3.917126911682098580e+02
1.361730000000000018e+03 -4.370445179080361413e+02
1.360059999999999945e+03 -3.803147367420278897e+02
1.358390000000000100e+03 -3.835429095746876555e+02
1.356730000000000018e+03 -2.623496038927332847e+02
1.355059999999999945e+03 -5.892939364951798780e+02
1.353390000000000100e+03 -4.079962230962937610e+02
1.351720000000000027e+03 -3.975564636960734788e+02
1.350049999999999955e+03 -2.792746582945073897e+02
1.348380000000000109e+03 -2.852508068916085904e+02
1.346710000000000036e+03 -2.013849094873730792e+02
1.345039999999999964e+03 -3.539769660818019474e+02
1.343369999999999891e+03 -3.748269766748962866e+02
1.341700000000000045e+03 -2.055349412666546414e+02
1.340029999999999973e+03 -3.220008598570730101e+02
1.338359999999999900e+03 -2.679247324461521202e+02
1.336680000000000064e+03 -3.109829702776241902e+02
1.335009999999999991e+03 -3.091224990915652597e+02
1.333339999999999918e+03 -1.608199819041801675e+02
1.331660000000000082e+03 -2.186510731341586506e+02
1.329990000000000009e+03 -3.526642121716395195e+02
1.328319999999999936e+03 -2.714353052077767643e+02
1.326640000000000100e+03 -2.066392498362765764e+02
1.324970000000000027e+03 -2.703259990972746891e+02
1.323289999999999964e+03 -2.084450948980957037e+02
1.321619999999999891e+03 -2.585475003839637793e+02
1.319940000000000055e+03 -2.711817473571027222e+02
1.318259999999999991e+03 -9.447344327635801164e+01
1.316589999999999918e+03 -1.577492072132881731e+02
1.314910000000000082e+03 -6.356054304862482240e+00
1.313230000000000018e+03 -3.532035034255750361e+01
1.311559999999999945e+03 -2.256947273054538528e+01
1.309880000000000109e+03 9.615108005944057368e+01
1.308200000000000045e+03 2.561418390331527917e+01
1.306519999999999982e+03 2.008198388010678173e+02
1.304839999999999918e+03 1.497680447527018259e+02
1.303160000000000082e+03 1.642588017582202156e+02
1.301480000000000018e+03 2.917921098176229862e+02
1.299799999999999955e+03 3.241679689309094101e+02
1.298119999999999891e+03 3.446863790980714839e+02
1.296440000000000055e+03 4.143473403191164834e+02
1.294759999999999991e+03 4.690508525940531399e+02
1.293069999999999936e+03 6.026270794079537154e+02
1.291390000000000100e+03 3.632159470707338187e+02
1.289710000000000036e+03 5.250473657873953925e+02
1.288029999999999973e+03 6.467213355579333438e+02
1.286339999999999918e+03 8.322690344953989552e+02
1.284660000000000082e+03 8.218283596537912672e+02
1.282980000000000018e+03 8.158302358660621394e+02
1.281289999999999964e+03 9.494066025931242621e+02
1.279609999999999900e+03 1.252093834193241491e+03
1.277920000000000073e+03 1.274456064375939604e+03
1.276240000000000009e+03 1.244828651363899553e+03
1.274549999999999955e+03 1.324976745002230018e+03
1.272859999999999900e+03 1.489667897762225039e+03
1.271180000000000064e+03 1.676568644472001324e+03
1.269490000000000009e+03 1.897445660687626514e+03
1.267799999999999955e+03 2.241265736024921353e+03
1.266109999999999900e+03 2.322928870483883657e+03
1.264420000000000073e+03 2.453335064064511243e+03
1.262740000000000009e+03 2.715449579164032912e+03
1.261049999999999955e+03 3.011641636200289213e+03
1.259359999999999900e+03 3.501576752358214435e+03
1.257670000000000073e+03 3.833054927637811488e+03
1.255980000000000018e+03 4.087476162039069095e+03
1.254289999999999964e+03 4.547340455561998169e+03
1.252599999999999909e+03 4.869647808206593254e+03
1.250900000000000091e+03 5.378034741089546515e+03
1.249210000000000036e+03 6.082828466765176927e+03
1.247519999999999982e+03 6.329265251562474077e+03
1.245829999999999927e+03 6.999645095481440876e+03
1.244140000000000100e+03 7.634267998522071139e+03
1.242440000000000055e+03 8.078271757247191999e+03
1.240750000000000000e+03 8.749381033318859409e+03
1.239059999999999945e+03 9.430533368512198649e+03
1.237359999999999900e+03 9.907867325260745929e+03
1.235670000000000073e+03 1.023600603348511868e+04
1.233970000000000027e+03 1.087532687434772743e+04
1.232279999999999973e+03 1.156295195560313914e+04
1.230579999999999927e+03 1.196735968057980790e+04
1.228880000000000109e+03 1.246741097576116954e+04
1.227190000000000055e+03 1.275646574395698372e+04
1.225490000000000009e+03 1.355380392325240609e+04
1.223789999999999964e+03 1.390598567275251844e+04
1.222089999999999918e+03 1.409461099245732476e+04
1.220400000000000091e+03 1.477493876150290998e+04
1.218700000000000045e+03 1.523275096532177122e+04
1.217000000000000000e+03 1.561380673934532570e+04
1.215299999999999955e+03 1.601250608357357487e+04
1.213599999999999909e+03 1.642714899800650892e+04
1.211900000000000091e+03 1.691083548264413548e+04
1.210200000000000045e+03 1.731346553748645238e+04
1.208500000000000000e+03 1.761593916253346833e+04
1.206799999999999955e+03 1.799775635778516516e+04
1.205099999999999909e+03 1.859541712324155378e+04
1.203390000000000100e+03 1.885796514271975684e+04
1.201690000000000055e+03 1.908221330488085368e+04
1.199990000000000009e+03 1.957070503724664013e+04
1.198289999999999964e+03 2.009274033981711545e+04
1.196579999999999927e+03 2.046796392309830844e+04
1.194880000000000109e+03 2.047028662237349636e+04
1.193170000000000073e+03 2.118559811645765876e+04
1.191470000000000027e+03 2.158380821243754326e+04
1.189759999999999991e+03 2.187780761732466999e+04
1.188059999999999945e+03 2.217030511000926344e+04
1.186349999999999909e+03 2.238789242569935595e+04
1.184650000000000091e+03 2.284867731508864381e+04
1.182940000000000055e+03 2.307345254158170428e+04
1.181230000000000018e+03 2.348277185237772937e+04
1.179529999999999973e+03 2.395628796497172880e+04
1.177819999999999936e+03 2.440629518657071822e+04
1.176109999999999900e+03 2.468774649247265188e+04
1.174400000000000091e+03 2.473654188267754944e+04
1.172690000000000055e+03 2.499158135718538688e+04
1.170980000000000018e+03 2.537526491599618748e+04
1.169269999999999982e+03 2.561989255910994689e+04
1.167559999999999945e+03 2.580746428652665054e+04
1.165849999999999909e+03 2.629028009824630863e+04
1.164140000000000100e+03 2.672763999426892406e+04
1.162430000000000064e+03 2.709174397459449392e+04
1.160720000000000027e+03 2.720589203922301385e+04
1.159009999999999991e+03 2.756548418815449259e+04
1.157289999999999964e+03 2.820667105533211725e+04
1.155579999999999927e+03 2.829885163067244503e+04
1.153869999999999891e+03 2.846247629031572797e+04
1.152160000000000082e+03 2.886684503426195442e+04
1.150440000000000055e+03 2.937750952917373434e+04
1.148730000000000018e+03 2.955556669952881202e+04
1.147009999999999991e+03 2.963732013796293904e+04
1.145299999999999955e+03 3.006596573472686578e+04
1.143579999999999927e+03 3.024390811668334209e+04
1.141869999999999891e+03 3.081364213985612150e+04
1.140150000000000091e+03 3.134387346533494565e+04
1.138430000000000064e+03 3.117634939223022229e+04
1.136720000000000027e+03 3.153161618391774755e+04
1.135000000000000000e+03 3.219538105433538294e+04
1.133279999999999973e+03 3.225059052616947156e+04
1.131559999999999945e+03 3.233924459942001704e+04
1.129839999999999918e+03 3.270004327408701647e+04
1.128130000000000109e+03 3.312453151850106951e+04
1.126410000000000082e+03 3.308951913669042551e+04
1.124690000000000055e+03 3.369855135629622964e+04
1.122970000000000027e+03 3.391342817731849209e+04
1.121250000000000000e+03 3.395394959975721576e+04
1.119519999999999982e+03 3.404687195183458971e+04
1.117799999999999955e+03 3.422248283641677699e+04
1.116079999999999927e+03 3.425433832241542405e+04
1.114359999999999900e+03 3.459683840983053233e+04
1.112640000000000100e+03 3.480718309866209165e+04
1.110910000000000082e+03 3.465333001519272511e+04
1.109190000000000055e+03 3.503486416616775387e+04
1.107470000000000027e+03 3.489844291855925258e+04
1.105740000000000009e+03 3.504352467808911751e+04
1.104019999999999982e+03 3.519139289262407692e+04
1.102289999999999964e+03 3.547986463442616514e+04
1.100569999999999936e+03 3.506692231110460125e+04
1.098839999999999918e+03 3.548438403517889674e+04
1.097119999999999891e+03 3.619273117400079354e+04
1.095390000000000100e+03 3.605668288034730358e+04
1.093660000000000082e+03 3.595977970823901705e+04
1.091940000000000055e+03 3.626526116993141477e+04
1.090210000000000036e+03 3.573294798009532678e+04
1.088480000000000018e+03 3.671267991180445097e+04
1.086750000000000000e+03 3.733485696505876695e+04
1.085019999999999982e+03 3.715267913985827909e+04
1.083299999999999955e+03 3.726118464587519702e+04
1.081569999999999936e+03 3.784679680294692662e+04
1.079839999999999918e+03 3.807375408156384219e+04
1.078109999999999900e+03 3.802175648172596993e+04
1.076369999999999891e+03 3.813606683703380986e+04
1.074640000000000100e+03 3.841925974110449897e+04
1.072910000000000082e+03 3.830529776672038133e+04
1.071180000000000064e+03 3.883678091388147732e+04
1.069450000000000045e+03 3.868530918258776364e+04
1.067720000000000027e+03 3.867828257283924904e+04
1.065980000000000018e+03 3.900606548465313972e+04
1.064250000000000000e+03 3.883032937881320686e+04
1.062509999999999991e+03 3.882930331767965981e+04
1.060779999999999973e+03 3.888435771574829414e+04
1.059049999999999955e+03 3.889195723536211881e+04
1.057309999999999945e+03 3.876996758364449488e+04
1.055579999999999927e+03 3.878775760716690274e+04
1.053839999999999918e+03 3.870775898250183673e+04
1.052099999999999909e+03 3.890280600252595468e+04
1.050369999999999891e+03 3.821243191232030222e+04
1.048630000000000109e+03 3.814566995939698245e+04
1.046890000000000100e+03 3.844015365116282192e+04
1.045150000000000091e+03 3.754628298761784390e+04
1.043420000000000073e+03 3.758189016604753851e+04
1.041680000000000064e+03 3.759741052955511259e+04
1.039940000000000055e+03 3.737727653775186627e+04
1.038200000000000045e+03 3.692448819063779956e+04
1.036460000000000036e+03 3.657964548821290373e+04
1.034720000000000027e+03 3.633704843047719623e+04
1.032980000000000018e+03 3.560479701743065380e+04
1.031240000000000009e+03 3.556219124907330115e+04
1.029500000000000000e+03 3.550393112540512084e+04
1.027750000000000000e+03 3.484578681007282285e+04
1.026009999999999991e+03 3.470601823810880160e+04
1.024269999999999982e+03 3.456919531083395123e+04
1.022529999999999973e+03 3.411541802824828483e+04
1.020779999999999973e+03 3.383985760480932367e+04
1.019039999999999964e+03 3.371347187392780324e+04
1.017299999999999955e+03 3.353853178773546824e+04
1.015549999999999955e+03 3.316740934917484992e+04
1.013809999999999945e+03 3.283226081468666962e+04
1.012059999999999945e+03 3.269933045398943432e+04
1.010320000000000050e+03 3.255927347120539343e+04
1.008570000000000050e+03 3.268423518837153824e+04
1.006820000000000050e+03 3.227674307638606842e+04
1.005080000000000041e+03 3.173922355232116388e+04
1.003330000000000041e+03 3.151962351819907053e+04
1.001580000000000041e+03 3.145906965492537711e+04
9.998319999999999936e+02 3.156574708779537468e+04
9.980839999999999463e+02 3.123357058604069971e+04
9.963350000000000364e+02 3.079724763971256471e+04
9.945850000000000364e+02 3.052837832791574328e+04
9.928350000000000364e+02 3.029975518696731160e+04
9.910850000000000364e+02 2.995257821686728857e+04
9.893350000000000364e+02 2.976424741761565747e+04
9.875839999999999463e+02 2.964887041119540663e+04
9.858319999999999936e+02 2.959064727680177748e+04
9.840810000000000173e+02 2.912866274404025535e+04
9.823279999999999745e+02 2.917343983734073117e+04
9.805760000000000218e+02 2.879455553227331256e+04
9.788229999999999791e+02 2.855712525771348737e+04
9.770689999999999600e+02 2.811444909294697572e+04
9.753160000000000309e+02 2.800001150338399020e+04
9.735620000000000118e+02 2.773882807648652670e+04
9.718070000000000164e+02 2.762169889158553269e+04
9.700520000000000209e+02 2.752181614174325659e+04
9.682970000000000255e+02 2.720417982695970568e+04
9.665410000000000537e+02 2.675849788646622255e+04
9.647849999999999682e+02 2.645546243396399223e+04
9.630280000000000200e+02 2.616688146164703357e+04
9.612709999999999582e+02 2.598944703028399817e+04
9.595140000000000100e+02 2.543655913987487293e+04
9.577559999999999718e+02 2.561782586209540386e+04
9.559980000000000473e+02 2.545503917826267570e+04
9.542390000000000327e+02 2.508340721307541025e+04
9.524800000000000182e+02 2.538422189485786657e+04
9.507210000000000036e+02 2.484518322361004539e+04
9.489610000000000127e+02 2.450389940360281253e+04
9.472000000000000455e+02 2.420117051443850141e+04
9.454400000000000546e+02 2.404918012101108980e+04
9.436789999999999736e+02 2.401794471150987010e+04
9.419170000000000300e+02 2.365186436558238347e+04
9.401549999999999727e+02 2.346763082587447207e+04
9.383930000000000291e+02 2.322254409238613880e+04
9.366309999999999718e+02 2.314630416511737712e+04
9.348680000000000518e+02 2.263631946080788475e+04
9.331040000000000418e+02 2.232369005919566553e+04
9.313400000000000318e+02 2.207360757012034446e+04
9.295760000000000218e+02 2.182937199358193539e+04
9.278110000000000355e+02 2.160229185271282768e+04
9.260460000000000491e+02 2.124935867758452150e+04
9.242809999999999491e+02 2.105807246819702777e+04
9.225149999999999864e+02 2.073944182752625420e+04
9.207480000000000473e+02 2.015496683544590633e+04
9.189819999999999709e+02 1.991463025934938560e+04
9.172150000000000318e+02 1.961794938510748034e+04
9.154470000000000027e+02 1.917852429263911472e+04
9.136789999999999736e+02 1.878184632570413669e+04
9.119109999999999445e+02 1.867371548430254552e+04
9.101420000000000528e+02 1.844134055794805681e+04
9.083730000000000473e+02 1.807491281045146388e+04
9.066029999999999518e+02 1.766494108468112972e+04
9.048329999999999700e+02 1.739361659112334382e+04
9.030629999999999882e+02 1.721423932977810910e+04
9.012920000000000300e+02 1.687551822358345817e+04
8.995209999999999582e+02 1.677684440298617119e+04
8.977490000000000236e+02 1.632702684433923423e+04
8.959769999999999754e+02 1.633585662470461830e+04
8.942050000000000409e+02 1.583143374408232376e+04
8.924320000000000164e+02 1.574606725898547120e+04
8.906589999999999918e+02 1.552264816634605268e+04
8.888849999999999909e+02 1.567008557615245445e+04
8.871109999999999900e+02 1.543847043189155374e+04
8.853360000000000127e+02 1.523091189705715806e+04
8.835620000000000118e+02 1.525029167140682330e+04
8.817859999999999445e+02 1.513453732570271131e+04
8.800109999999999673e+02 1.499642128918266098e+04
8.782340000000000373e+02 1.511167129321554239e+04
8.764579999999999700e+02 1.521155960643248545e+04
8.746810000000000400e+02 1.513410479675377974e+04
8.729039999999999964e+02 1.529729759361448487e+04
8.711259999999999764e+02 1.560394737474113572e+04
8.693479999999999563e+02 1.572764481600307408e+04
8.675689999999999600e+02 1.582759934875286126e+04
8.657899999999999636e+02 1.621410159526395910e+04
8.640109999999999673e+02 1.661035155553636287e+04
8.622309999999999945e+02 1.731695874139937951e+04
8.604510000000000218e+02 1.770861369467988334e+04
8.586699999999999591e+02 1.839092598089350940e+04
8.568890000000000100e+02 1.915988608821095477e+04
8.551069999999999709e+02 2.040990363586433887e+04
8.533250000000000455e+02 2.177026905833802448e+04
8.515430000000000064e+02 2.336708235563201379e+04
8.497599999999999909e+02 2.450335322759084374e+04
8.479769999999999754e+02 2.627837202811661700e+04
8.461939999999999600e+02 2.779893875720932556e+04
8.444099999999999682e+02 2.975466319537116215e+04
8.426259999999999764e+02 3.092493561587671866e+04
8.408410000000000082e+02 3.256256585303512475e+04
8.390560000000000400e+02 3.439284412634421460e+04
8.372699999999999818e+02 3.582738032395018672e+04
8.354840000000000373e+02 3.734956461154391582e+04
8.336970000000000027e+02 3.871720693113886955e+04
8.319109999999999445e+02 4.019888742563422420e+04
8.301230000000000473e+02 4.154993600189383142e+04
8.283360000000000127e+02 4.300522275305381481e+04
8.265480000000000018e+02 4.403076769786200748e+04
8.247590000000000146e+02 4.501947091718709271e+04
8.229700000000000273e+02 4.632502238819214108e+04
8.211810000000000400e+02 4.701662211087715696e+04
8.193909999999999627e+02 4.790498024293563503e+04
8.176009999999999991e+02 4.867008668063178629e+04
8.158099999999999454e+02 4.920305163564696704e+04
8.140190000000000055e+02 4.970236495028766512e+04
8.122279999999999518e+02 5.007872662455388490e+04
8.104360000000000355e+02 5.130464695114646020e+04
8.086440000000000055e+02 5.199711569138256891e+04
8.068509999999999991e+02 5.233934319201120525e+04
8.050579999999999927e+02 5.244031916033152083e+04
8.032649999999999864e+02 5.284514359634355060e+04
8.014710000000000036e+02 5.304632692790617875e+04
7.996760000000000446e+02 5.346896923615951528e+04
7.978819999999999482e+02 5.377034963830885681e+04
7.960860000000000127e+02 5.355219958030160342e+04
7.942910000000000537e+02 5.363638761619033176e+04
7.924950000000000045e+02 5.341143479114040383e+04
7.906979999999999791e+02 5.333434118638233485e+04
7.889020000000000437e+02 5.230968564844342472e+04
7.871040000000000418e+02 5.219530002942377178e+04
7.853070000000000164e+02 5.127585247722327767e+04
7.835090000000000146e+02 5.061276430786619312e+04
7.817100000000000364e+02 5.000833560267350549e+04
7.799109999999999445e+02 4.847315569009467436e+04
7.781119999999999663e+02 4.730142457012969680e+04
7.763120000000000118e+02 4.586355304993949539e+04
7.745119999999999436e+02 4.511253037662238057e+04
7.727110000000000127e+02 4.354956741162865364e+04
7.709099999999999682e+02 4.267185334779739060e+04
7.691090000000000373e+02 4.139208818512858124e+04
7.673070000000000164e+02 4.012678286654430849e+04
7.655040000000000191e+02 3.914103747354647203e+04
7.637019999999999982e+02 3.833883009309347108e+04
7.618990000000000009e+02 3.762578269257660577e+04
7.600950000000000273e+02 3.695889535354301188e+04
7.582910000000000537e+02 3.680505707872092898e+04
7.564869999999999663e+02 3.583256786811034544e+04
7.546820000000000164e+02 3.542993885497032898e+04
7.528769999999999527e+02 3.493195896045180416e+04
7.510710000000000264e+02 3.453943937225396076e+04
7.492649999999999864e+02 3.389806895711776451e+04
7.474579999999999700e+02 3.402095895721267880e+04
7.456509999999999536e+02 3.348529818483953568e+04
7.438440000000000509e+02 3.366788663999832352e+04
7.420359999999999445e+02 3.339813564660165866e+04
7.402279999999999518e+02 3.312863393523737614e+04
7.384189999999999827e+02 3.318129288434867340e+04
7.366100000000000136e+02 3.273380117002296174e+04
7.348010000000000446e+02 3.270935879226023098e+04
7.329909999999999854e+02 3.272637721133726882e+04
7.311810000000000400e+02 3.270624502153804497e+04
7.293700000000000045e+02 3.295257373773025029e+04
7.275589999999999691e+02 3.266335189963708035e+04
7.257469999999999573e+02 3.280069107674730913e+04
7.239349999999999454e+02 3.259587975419323629e+04
7.221230000000000473e+02 3.250981793197483785e+04
7.203099999999999454e+02 3.297551726155017968e+04
7.184969999999999573e+02 3.302466614611240948e+04
7.166829999999999927e+02 3.329717629180092626e+04
7.148690000000000282e+02 3.320293604715770925e+04
7.130539999999999736e+02 3.322605717303365236e+04
7.112390000000000327e+02 3.335802796328936529e+04
7.094239999999999782e+02 3.347064841792485095e+04
7.076079999999999472e+02 3.354753037989597942e+04
7.057920000000000300e+02 3.366976206098854891e+04
7.039750000000000227e+02 3.386095535893023043e+04
7.021580000000000155e+02 3.416619843076517282e+04
7.003400000000000318e+02 3.383870322902302723e+04
6.985220000000000482e+02 3.447395785597609938e+04
6.967039999999999509e+02 3.467186231162439799e+04
6.948849999999999909e+02 3.453982863073822227e+04
6.930660000000000309e+02 3.456034483337940037e+04
6.912459999999999809e+02 3.474322300918050314e+04
6.894260000000000446e+02 3.479405112337122409e+04
6.876059999999999945e+02 3.505232917595157051e+04
6.857849999999999682e+02 3.556176933888522035e+04
6.839629999999999654e+02 3.553987169453341630e+04
6.821420000000000528e+02 3.569921187148492027e+04
6.803189999999999600e+02 3.625642655044371350e+04
6.784969999999999573e+02 3.624687905070581473e+04
6.766730000000000018e+02 3.596860621783339593e+04
6.748500000000000227e+02 3.662007120626428514e+04
6.730259999999999536e+02 3.681079866217340168e+04
6.712019999999999982e+02 3.719197627622274740e+04
6.693769999999999527e+02 3.766891646774623950e+04
6.675520000000000209e+02 3.758680687242301792e+04
6.657259999999999991e+02 3.801145996463016490e+04
6.638999999999999773e+02 3.850456332503377052e+04
6.620729999999999791e+02 3.863742948308428458e+04
6.602459999999999809e+02 3.939154596440462046e+04
6.584189999999999827e+02 3.986211276899476070e+04
6.565910000000000082e+02 4.025054250895284349e+04
6.547630000000000337e+02 4.051572262728423811e+04
6.529339999999999691e+02 4.088346579122071853e+04
6.511050000000000182e+02 4.168975938866415527e+04
6.492749999999999773e+02 4.174551614201010671e+04
6.474450000000000500e+02 4.268802338402683381e+04
6.456150000000000091e+02 4.364238111471431330e+04
6.437839999999999918e+02 4.410210213925149583e+04
6.419529999999999745e+02 4.448787370765339438e+04
6.401209999999999809e+02 4.571020868032305589e+04
6.382889999999999873e+02 4.665639425208153989e+04
6.364560000000000173e+02 4.790234333858614264e+04
6.346230000000000473e+02 4.885854307943380991e+04
6.327899999999999636e+02 4.949399347462455626e+04
6.309560000000000173e+02 5.079440752273476392e+04
6.291219999999999573e+02 5.185167228047244134e+04
6.272870000000000346e+02 5.361980080172854650e+04
6.254519999999999982e+02 5.485588008792669280e+04
6.236159999999999854e+02 5.661852324830253201e+04
6.217799999999999727e+02 5.852601722896514548e+04
6.199439999999999600e+02 5.989776202991448372e+04
6.181069999999999709e+02 6.188947084344101313e+04
6.162690000000000055e+02 6.430894375262962421e+04
6.144320000000000164e+02 6.637625434517435497e+04
6.125929999999999609e+02 6.822514236420675297e+04
6.107549999999999955e+02 7.106036806659528520e+04
6.089160000000000537e+02 7.303925803090618865e+04
6.070760000000000218e+02 7.572121234031481436e+04
6.052359999999999900e+02 7.742501769169057661e+04
6.033959999999999582e+02 7.877497408503346378e+04
6.015549999999999500e+02 8.046929496217510314e+04
5.997140000000000555e+02 8.158976693677932781e+04
5.978719999999999573e+02 8.287690350620340905e+04
5.960299999999999727e+02 8.288229122861572250e+04
5.941870000000000118e+02 8.475464365692927095e+04
5.923440000000000509e+02 8.510834729378683551e+04
5.905009999999999764e+02 8.570870213918841910e+04
5.886570000000000391e+02 8.542892182941839565e+04
5.868120000000000118e+02 8.573230644787827623e+04
5.849679999999999609e+02 8.711692869416862959e+04
5.831219999999999573e+02 8.776932964403610094e+04
5.812770000000000437e+02 8.813976822173406254e+04
5.794310000000000400e+02 8.918577189455540793e+04
5.775839999999999463e+02 8.893304074599211162e+04
5.757369999999999663e+02 9.069026102849746530e+04
5.738899999999999864e+02 9.126883274207147770e+04
5.720420000000000300e+02 9.206146977348951623e+04
5.701939999999999600e+02 9.317815829168274649e+04
5.683450000000000273e+02 9.332691223916324088e+04
5.664959999999999809e+02 9.439871772915561451e+04
5.646459999999999582e+02 9.472758875993880793e+04
5.627960000000000491e+02 9.598751138900071965e+04
5.609460000000000264e+02 9.709748561634137877e+04
5.590950000000000273e+02 9.833452552392764483e+04
5.572430000000000518e+02 9.897763119547761744e+04
5.553909999999999627e+02 1.018277885769304994e+05
5.535389999999999873e+02 1.025859976682862471e+05
5.516870000000000118e+02 1.039552584695449041e+05
5.498329999999999700e+02 1.058795994238965504e+05
5.479800000000000182e+02 1.081329779503419704e+05
5.461259999999999764e+02 1.099344225200376532e+05
5.442709999999999582e+02 1.118639332168373658e+05
5.424160000000000537e+02 1.151714957912023237e+05
5.405610000000000355e+02 1.172061102431325562e+05
5.387050000000000409e+02 1.200297909619985294e+05
5.368490000000000464e+02 1.225155236143775255e+05
5.349919999999999618e+02 1.261293226456179545e+05
5.331349999999999909e+02 1.293401736663493066e+05
5.312780000000000200e+02 1.330590766765715962e+05
5.294199999999999591e+02 1.366720462056377728e+05
5.275610000000000355e+02 1.412710823375825712e+05
5.257019999999999982e+02 1.458791705710645765e+05
5.238429999999999609e+02 1.518913109060838178e+05
5.219829999999999472e+02 1.563385179841148783e+05
5.201230000000000473e+02 1.621687772197515587e+05
5.182619999999999436e+02 1.680581033105669776e+05
5.164009999999999536e+02 1.746924816150864935e+05
5.145399999999999636e+02 1.825779121333101066e+05
5.126779999999999973e+02 1.896574096469964716e+05
5.108149999999999977e+02 1.970939742403612181e+05
5.089519999999999982e+02 2.044835911597175582e+05
5.070889999999999986e+02 2.120312604050655209e+05
5.052250000000000227e+02 2.208349968705266365e+05
5.033609999999999900e+02 2.279727857181683066e+05
5.014959999999999809e+02 2.365696418983312324e+05
4.996309999999999718e+02 2.440985505168938835e+05
4.977649999999999864e+02 2.512325265804461960e+05
4.958990000000000009e+02 2.577625551386475272e+05
4.940330000000000155e+02 2.632556361914978479e+05
4.921659999999999968e+02 2.663597848299987381e+05
4.902989999999999782e+02 2.700849860194281209e+05
4.884309999999999832e+02 2.726402549070970272e+05
4.865629999999999882e+02 2.740315764020039933e+05
4.846940000000000168e+02 2.748399657077998854e+05
4.828249999999999886e+02 2.760864076771735563e+05
4.809549999999999841e+02 2.759279175701458007e+05
4.790849999999999795e+02 2.756054801830656943e+05
4.772139999999999986e+02 2.757381108323541121e+05
4.753430000000000177e+02 2.750467942579902010e+05
4.734719999999999800e+02 2.769535304599740775e+05
4.716000000000000227e+02 2.768053348393642227e+05
4.697280000000000086e+02 2.791121920515323291e+05
4.678550000000000182e+02 2.791721175539972610e+05
4.659820000000000277e+02 2.810610959457004792e+05
4.641080000000000041e+02 2.810771427406513831e+05
4.622339999999999804e+02 2.821382424813310499e+05
4.603589999999999804e+02 2.823584107382696238e+05
4.584839999999999804e+02 2.822056319974576472e+05
4.566089999999999804e+02 2.829999062588951201e+05
4.547330000000000041e+02 2.840102491779307602e+05
4.528570000000000277e+02 2.843106451557666296e+05
4.509800000000000182e+02 2.837261099043324939e+05
4.491019999999999754e+02 2.826716435085224221e+05
4.472250000000000227e+02 2.822002145161487279e+05
4.453460000000000036e+02 2.817008702328791842e+05
4.434680000000000177e+02 2.812695633530460182e+05
4.415889999999999986e+02 2.799983254987155087e+05
4.397090000000000032e+02 2.782281567548720632e+05
4.378290000000000077e+02 2.772310412963336566e+05
4.359490000000000123e+02 2.770679791231002309e+05
4.340679999999999836e+02 2.748459862020701403e+05
4.321859999999999786e+02 2.738680626183184213e+05
4.303050000000000068e+02 2.711191764096598490e+05
4.284220000000000255e+02 2.706433756470298395e+05
4.265389999999999873e+02 2.692496283398999949e+05
4.246560000000000059e+02 2.679219344882703735e+05
4.227730000000000246e+02 2.668422940921408590e+05
4.208890000000000100e+02 2.644727233170990949e+05
4.190040000000000191e+02 2.626992222483556834e+05
4.171190000000000282e+02 2.622647747487266315e+05
4.152330000000000041e+02 2.617693970690704591e+05
4.133469999999999800e+02 2.578510730153810000e+05
4.114610000000000127e+02 2.581178025876582542e+05
4.095740000000000123e+02 2.568576021220769035e+05
4.076870000000000118e+02 2.560454553393447713e+05
4.057989999999999782e+02 2.551433786325491383e+05
4.039110000000000014e+02 2.536683556655153225e+05
4.020219999999999914e+02 2.518664028882734710e+05
4.001329999999999814e+02 2.501655039077362453e+05
3.982429999999999950e+02 2.491046752309066942e+05
3.963530000000000086e+02 2.490799004077547288e+05
3.944630000000000223e+02 2.479671794382803200e+05
3.925720000000000027e+02 2.469485289149836462e+05
3.906800000000000068e+02 2.450219489233919303e+05
3.887880000000000109e+02 2.440864228995141457e+05
3.868960000000000150e+02 2.430659508433502342e+05
3.850029999999999859e+02 2.407365494615121570e+05
3.831100000000000136e+02 2.402872021044513676e+05
3.812160000000000082e+02 2.389939255358733062e+05
3.793220000000000027e+02 2.378307030491661280e+05
3.774270000000000209e+02 2.366045514651589328e+05
3.755319999999999823e+02 2.353804540201463387e+05
3.736370000000000005e+02 2.346064107141282875e+05
3.717400000000000091e+02 2.329764553602246160e+05
3.698439999999999941e+02 2.328415373244864168e+05
3.679470000000000027e+02 2.288586904486480926e+05
3.660489999999999782e+02 2.277939148185082595e+05
3.641519999999999868e+02 2.268821764779343503e+05
3.622529999999999859e+02 2.268275264898684400e+05
3.603539999999999850e+02 2.254239308695934305e+05
3.584549999999999841e+02 2.240853896171093220e+05
3.565550000000000068e+02 2.227709198679156252e+05
3.546549999999999727e+02 2.218185045437872759e+05
3.527540000000000191e+02 2.204271608375284122e+05
3.508530000000000086e+02 2.188208716136395524e+05
3.489510000000000218e+02 2.189216541222595552e+05
3.470489999999999782e+02 2.167874911705843406e+05
3.451469999999999914e+02 2.156513827586138505e+05
3.432440000000000282e+02 2.137853462225268886e+05
3.413399999999999750e+02 2.123223816483933770e+05
3.394359999999999786e+02 2.112014717287246312e+05
3.375319999999999823e+02 2.098306164635206806e+05
3.356270000000000095e+02 2.088268333037955745e+05
3.337219999999999800e+02 2.073411048559604387e+05
3.318159999999999741e+02 2.052964486284847953e+05
3.299089999999999918e+02 2.029428647075743356e+05
3.280029999999999859e+02 2.037043180475246627e+05
3.260950000000000273e+02 2.023098613462460635e+05
3.241879999999999882e+02 2.019234419058283092e+05
3.222799999999999727e+02 2.007270949444775179e+05
3.203709999999999809e+02 2.009938205484898644e+05
3.184619999999999891e+02 1.989156010943946603e+05
3.165520000000000209e+02 1.990594543207843963e+05
3.146419999999999959e+02 1.974533625466425437e+05
3.127320000000000277e+02 1.968483257719691028e+05
3.108210000000000264e+02 1.952513618217582989e+05
3.089089999999999918e+02 1.951224707824419602e+05
3.069970000000000141e+02 1.935636348578364705e+05
3.050849999999999795e+02 1.926388540479418298e+05
3.031720000000000255e+02 1.911751462930700509e+05
3.012590000000000146e+02 1.898514937105755962e+05
2.993450000000000273e+02 1.884789142984670762e+05
2.974300000000000068e+02 1.886484081433119718e+05
2.955160000000000196e+02 1.867629392202071031e+05
2.936000000000000227e+02 1.854575616964037763e+05
2.916850000000000023e+02 1.841122214046506560e+05
2.897690000000000055e+02 1.823919545430764556e+05
2.878519999999999754e+02 1.795327611983391398e+05
2.859350000000000023e+02 1.796736232569464773e+05
2.840169999999999959e+02 1.787275589479949558e+05
2.820989999999999895e+02 1.768795501002052624e+05
2.801800000000000068e+02 1.755386150005212985e+05
2.782610000000000241e+02 1.749627354198465182e+05
2.763419999999999845e+02 1.738029113581809506e+05
2.744220000000000255e+02 1.728661611892771907e+05
2.725009999999999764e+02 1.717704849999741418e+05
2.705799999999999841e+02 1.703268644454654714e+05
2.686589999999999918e+02 1.683142995257511793e+05
2.667370000000000232e+02 1.675308087304444343e+05
2.648149999999999977e+02 1.662403736278699071e+05
2.628919999999999959e+02 1.655280127656087279e+05
2.609689999999999941e+02 1.652387076540476992e+05
2.590450000000000159e+02 1.633374768987661228e+05
2.571209999999999809e+02 1.622873019521828392e+05
2.551959999999999980e+02 1.619032014779054152e+05
2.532709999999999866e+02 1.612611568703545490e+05
2.513449999999999989e+02 1.607481868511962530e+05
2.494190000000000111e+02 1.605802727568229311e+05
2.474919999999999902e+02 1.585844333669891930e+05
2.455649999999999977e+02 1.584076499600289972e+05
2.436370000000000005e+02 1.578389413738157018e+05
2.417090000000000032e+02 1.576902888285946974e+05
2.397800000000000011e+02 1.575247112203882134e+05
2.378509999999999991e+02 1.571761897113228915e+05
2.359219999999999970e+02 1.565237243013987900e+05
2.339919999999999902e+02 1.568363339738990762e+05
2.320610000000000070e+02 1.558690188161149272e+05
2.301299999999999955e+02 1.551517598738602246e+05
2.281990000000000123e+02 1.544555571471349103e+05
2.262669999999999959e+02 1.544434297356858733e+05
2.243340000000000032e+02 1.549523777268946869e+05
2.224010000000000105e+02 1.536003820501417504e+05
2.204679999999999893e+02 1.530144427054270636e+05
2.185339999999999918e+02 1.534235789090816979e+05
2.165999999999999943e+02 1.519627715030742402e+05
2.146649999999999920e+02 1.515020397620655131e+05
2.127299999999999898e+02 1.507153644697245036e+05
2.107940000000000111e+02 1.511077649590719666e+05
2.088569999999999993e+02 1.507192413176705013e+05
2.069209999999999923e+02 1.493987548502607970e+05
2.049830000000000041e+02 1.492963637311208295e+05
2.030449999999999875e+02 1.495370292358188599e+05
2.011069999999999993e+02 1.489847513643549173e+05
1.991680000000000064e+02 1.485595496250256547e+05
1.972290000000000134e+02 1.481104045679847768e+05
1.952899999999999920e+02 1.475173161932323710e+05
1.933489999999999895e+02 1.471613236928033293e+05
1.914089999999999918e+02 1.470773683663660777e+05
1.894670000000000130e+02 1.469635090897844057e+05
1.875260000000000105e+02 1.465966869871944655e+05
1.855840000000000032e+02 1.474949413969759480e+05
1.836409999999999911e+02 1.470962724069627293e+05
1.816980000000000075e+02 1.467866603333410749e+05
1.797539999999999907e+02 1.467641249770969443e+05
1.778100000000000023e+02 1.470656465958455519e+05
1.758650000000000091e+02 1.474602450492041535e+05
1.739199999999999875e+02 1.479219005361868185e+05
1.719749999999999943e+02 1.481266130567936052e+05
1.700289999999999964e+02 1.480294025586263451e+05
1.680819999999999936e+02 1.486172691296999110e+05
1.661349999999999909e+02 1.480201928517506749e+05
1.641870000000000118e+02 1.500711937604556733e+05
1.622390000000000043e+02 1.490872518788596208e+05
1.602909999999999968e+02 1.503483672069625463e+05
1.583420000000000130e+02 1.517475598685618315e+05
1.563919999999999959e+02 1.526368299518080312e+05
1.544420000000000073e+02 1.533521573622871947e+05
1.524919999999999902e+02 1.539415420999993512e+05
1.505409999999999968e+02 1.532670044063512760e+05
1.485889999999999986e+02 1.547815443695839786e+05
1.466370000000000005e+02 1.536961417777043243e+05
1.446850000000000023e+02 1.542927966307122551e+05
1.427319999999999993e+02 1.557095292877446336e+05
1.407779999999999916e+02 1.581583398371328367e+05
1.388240000000000123e+02 1.586142079491839104e+05
1.368700000000000045e+02 1.579581336238978547e+05
1.349149999999999920e+02 1.573171373382620804e+05
1.329590000000000032e+02 1.574262191806984774e+05
1.310029999999999859e+02 1.596523587036935787e+05
1.290469999999999970e+02 1.609155559072473843e+05
1.270900000000000034e+02 1.614098313863185467e+05
1.251320000000000050e+02 1.625641852294194105e+05
1.231740000000000066e+02 1.631545968710954476e+05
1.212159999999999940e+02 1.631520663113466289e+05
1.192570000000000050e+02 1.623176142632234842e+05
1.172980000000000018e+02 1.627722200727289601e+05
1.153379999999999939e+02 1.614219045119971561e+05
1.133769999999999953e+02 1.590006676696760987e+05
1.114159999999999968e+02 1.586444888031810406e+05
1.094549999999999983e+02 1.625963679125119816e+05
1.074929999999999950e+02 1.638233258880757494e+05
1.055300000000000011e+02 1.595153628186108836e+05
1.035669999999999931e+02 1.528514578432899725e+05
1.016039999999999992e+02 1.476246109621130163e+05
9.963989999999999725e+01 1.437608452847611334e+05
9.767539999999999623e+01 1.428721461820488912e+05
9.571040000000000703e+01 1.431855157963219681e+05
9.374490000000000123e+01 1.460749541720174311e+05
9.177899999999999636e+01 1.472074592408514291e+05
8.981250000000000000e+01 1.466800352697834605e+05
8.784550000000000125e+01 1.456456801935162221e+05
8.587800000000000011e+01 1.472013940565320372e+05
8.390999999999999659e+01 1.469951769033245509e+05
8.194150000000000489e+01 1.427020287783986714e+05
7.997239999999999327e+01 1.385669518568025669e+05
7.800289999999999679e+01 1.372449419249692000e+05
7.603289999999999793e+01 1.365530011550007912e+05
7.406239999999999668e+01 1.342131295914475340e+05
7.209130000000000393e+01 1.255803294212845649e+05
7.011979999999999791e+01 1.104425964072295901e+05
6.814770000000000039e+01 9.057103488166794705e+04
6.617520000000000380e+01 6.715324059545056662e+04
6.420210000000000150e+01 4.550371789287783031e+04
6.222849999999999682e+01 2.868666467021086282e+04
6.025439999999999685e+01 1.730488097208124600e+04
5.827980000000000160e+01 9.937466843131845962e+03
