1.838160000000000082e+03 -7.841295127260164008e+02
1.836589999999999918e+03 -3.363080578034241626e+02
1.835029999999999973e+03 -3.199759544637709041e+02
1.833460000000000036e+03 -2.557648424078070093e+02
1.831890000000000100e+03 -2.505087585629044042e+02
1.830329999999999927e+03 -2.069428838099956920e+02
1.828759999999999991e+03 -2.302971428317287064e+02
1.827190000000000055e+03 -4.084064300645295589e+02
1.825619999999999891e+03 -4.268707455083713285e+02
1.824049999999999955e+03 -4.134900891632823914e+02
1.822490000000000009e+03 -2.470010723082705226e+02
1.820920000000000073e+03 -3.052307588298135670e+02
1.819349999999999909e+03 -3.618154735624193563e+02
1.817779999999999973e+03 -4.963552165060791594e+02
1.816210000000000036e+03 -4.175499876607973420e+02
1.814640000000000100e+03 -2.494997870265797246e+02
1.813069999999999936e+03 -1.961046146034132107e+02
1.811490000000000009e+03 -2.604258540006812837e+02
1.809920000000000073e+03 -3.008404515551228542e+02
1.808349999999999909e+03 -4.271100773206126178e+02
1.806779999999999973e+03 -4.212347312971796782e+02
1.805210000000000036e+03 -4.662144134847912937e+02
1.803630000000000109e+03 -4.143090734457691724e+02
1.802059999999999945e+03 -4.638985256109881448e+02
1.800490000000000009e+03 -4.483430059872625861e+02
1.798910000000000082e+03 -4.567016029788683227e+02
1.797339999999999918e+03 -3.616558533327479381e+02
1.795769999999999982e+03 -4.826651318976910261e+02
1.794190000000000055e+03 -5.288876659199158894e+02
1.792619999999999891e+03 -6.386067144624648790e+02
1.791039999999999964e+03 -5.197384437487817195e+02
1.789470000000000027e+03 -5.118672622689191485e+02
1.787890000000000100e+03 -5.325081868193265109e+02
1.786309999999999945e+03 -5.437035648672608659e+02
1.784740000000000009e+03 -5.943968951315546292e+02
1.783160000000000082e+03 -6.134014684435751406e+02
1.781579999999999927e+03 -4.832604952531401068e+02
1.780009999999999991e+03 -5.069183372615807457e+02
1.778430000000000064e+03 -6.239865593352187716e+02
1.776849999999999909e+03 -5.683092349064136215e+02
1.775269999999999982e+03 -6.108863639751434675e+02
1.773690000000000055e+03 -5.979179465414163133e+02
1.772109999999999900e+03 -4.345039826052270655e+02
1.770529999999999973e+03 -2.964444721665749967e+02
1.768950000000000045e+03 -3.436394152254724759e+02
1.767369999999999891e+03 -4.175888117819049512e+02
1.765789999999999964e+03 -3.490926618358716951e+02
1.764210000000000036e+03 -3.407509653873821662e+02
1.762630000000000109e+03 -4.904637224364414578e+02
1.761049999999999955e+03 -4.930309329830342904e+02
1.759470000000000027e+03 -5.192525970271708502e+02
1.757890000000000100e+03 -5.439287145688358578e+02
1.756309999999999945e+03 -4.483592856080540514e+02
1.754720000000000027e+03 -4.618953361394414969e+02
1.753140000000000100e+03 -7.502345259047251602e+02
1.751559999999999945e+03 -6.846281691675649199e+02
1.749970000000000027e+03 -6.016264252910659707e+02
1.748390000000000100e+03 -5.423286872799762932e+02
1.746799999999999955e+03 -5.603349837670612033e+02
1.745220000000000027e+03 -6.335458644820537302e+02
1.743630000000000109e+03 -6.309602013327203167e+02
1.742049999999999955e+03 -6.519797007737943204e+02
1.740460000000000036e+03 -5.531020779880491318e+02
1.738880000000000109e+03 -7.474301961551936984e+02
1.737289999999999964e+03 -4.940606137330432830e+02
1.735710000000000036e+03 -5.290973506262598676e+02
1.734119999999999891e+03 -6.224358085676904011e+02
1.732529999999999973e+03 -4.841281416441634065e+02
1.730940000000000055e+03 -4.828743498556796112e+02
1.729359999999999900e+03 -4.641280359320589923e+02
1.727769999999999982e+03 -3.887822845071641495e+02
1.726180000000000064e+03 -4.314904082173197821e+02
1.724589999999999918e+03 -3.560524070625215245e+02
1.723000000000000000e+03 -4.143682810427671939e+02
1.721410000000000082e+03 -2.446380301580647938e+02
1.719819999999999936e+03 -4.113616544084106863e+02
1.718230000000000018e+03 -4.899391537937954126e+02
1.716640000000000100e+03 -4.442705283142313419e+02
1.715049999999999955e+03 -4.771557779697141086e+02
1.713460000000000036e+03 -5.460949027602437127e+02
1.711869999999999891e+03 -5.631879026858296129e+02
1.710279999999999973e+03 -5.802347777464492538e+02
1.708680000000000064e+03 -5.312781539969437290e+02
1.707089999999999918e+03 -4.917324892341712257e+02
1.705500000000000000e+03 -5.509406996064462874e+02
1.703910000000000082e+03 -5.647027851137681864e+02
1.702309999999999945e+03 -3.571602096125170647e+02
1.700720000000000027e+03 -6.516297552964460920e+02
1.699119999999999891e+03 -3.028940579603186052e+02
1.697529999999999973e+03 -2.365710638208583987e+02
1.695940000000000055e+03 -4.398019448164341156e+02
1.694339999999999918e+03 -2.903267106870080170e+02
1.692740000000000009e+03 -4.025047696811598144e+02
1.691150000000000091e+03 -2.654966958948934916e+02
1.689549999999999955e+03 -2.569816330541834759e+02
1.687960000000000036e+03 -5.108101944453665055e+01
1.686359999999999900e+03 -1.395728347689546354e+02
1.684759999999999991e+03 -2.291794321696215775e+01
1.683170000000000073e+03 -5.027837482546237879e+01
1.681569999999999936e+03 1.006963856139554991e+01
1.679970000000000027e+03 1.391643588246733998e+02
1.678369999999999891e+03 3.199057859643726260e+02
1.676769999999999982e+03 3.020939199804997770e+02
1.675170000000000073e+03 1.951287608730417560e+02
1.673569999999999936e+03 2.165103086420022009e+02
1.671970000000000027e+03 7.533856328739420860e+01
1.670369999999999891e+03 3.311135248091959511e+02
1.668769999999999982e+03 3.212351932074161596e+02
1.667170000000000073e+03 4.770035684820650204e+02
1.665569999999999936e+03 4.844186506331352575e+02
1.663970000000000027e+03 6.120804396606254159e+02
1.662369999999999891e+03 7.989889355645282194e+02
1.660769999999999982e+03 8.142441383448567649e+02
1.659160000000000082e+03 7.000124568081955658e+02
1.657559999999999945e+03 8.495613652593383449e+02
1.655960000000000036e+03 6.169569805869141419e+02
1.654349999999999909e+03 6.526665891759075748e+02
1.652750000000000000e+03 7.881559101743005158e+02
1.651150000000000091e+03 9.454919380491082848e+02
1.649539999999999964e+03 7.459428367637628980e+02
1.647940000000000055e+03 9.671725703093943594e+02
1.646329999999999927e+03 1.068317760355308565e+03
1.644730000000000018e+03 9.702411995717557147e+02
1.643119999999999891e+03 7.927806809489411535e+02
1.641509999999999991e+03 1.046667454862981685e+03
1.639910000000000082e+03 1.031231598544647568e+03
1.638299999999999955e+03 1.127912663789957151e+03
1.636690000000000055e+03 9.709410215721145505e+02
1.635089999999999918e+03 9.852458697190049861e+02
1.633480000000000018e+03 1.137968518832429254e+03
1.631869999999999891e+03 1.158438460482720984e+03
1.630259999999999991e+03 9.645556946698816319e+02
1.628650000000000091e+03 1.132820221393903921e+03
1.627039999999999964e+03 1.010532040654790762e+03
1.625430000000000064e+03 1.217591152452532697e+03
1.623819999999999936e+03 1.241397556787142094e+03
1.622210000000000036e+03 1.127051253658617497e+03
1.620599999999999909e+03 1.351152243066953815e+03
1.618990000000000009e+03 1.119000525012150320e+03
1.617380000000000109e+03 1.310596099494217924e+03
1.615769999999999982e+03 1.455538966513140622e+03
1.614160000000000082e+03 1.169329126068936603e+03
1.612549999999999955e+03 1.196566578161589860e+03
1.610930000000000064e+03 1.074926531100230932e+03
1.609319999999999936e+03 1.007658862009076984e+03
1.607710000000000036e+03 1.299938485454778856e+03
1.606089999999999918e+03 1.310141492798367835e+03
1.604480000000000018e+03 1.160915995060266141e+03
1.602859999999999900e+03 1.259514470529455139e+03
1.601250000000000000e+03 1.197183851607544057e+03
1.599630000000000109e+03 1.077577795202341804e+03
1.598019999999999982e+03 1.114442055096624244e+03
1.596400000000000091e+03 1.180631466817030741e+03
1.594789999999999964e+03 1.064390605527503794e+03
1.593170000000000073e+03 9.682754853735204961e+02
1.591549999999999955e+03 1.156808247065815522e+03
1.589940000000000055e+03 9.866098508718096127e+02
1.588319999999999936e+03 1.025138080689714116e+03
1.586700000000000045e+03 8.814141923538991250e+02
1.585079999999999927e+03 1.017438185864368279e+03
1.583470000000000027e+03 1.128729841045213107e+03
1.581849999999999909e+03 1.033149302681285917e+03
1.580230000000000018e+03 7.677166461636370514e+02
1.578609999999999900e+03 9.315318714922759682e+02
1.576990000000000009e+03 1.013594978667191754e+03
1.575369999999999891e+03 8.920059676883902284e+02
1.573750000000000000e+03 9.586648385558728478e+02
1.572130000000000109e+03 1.034671591269627243e+03
1.570500000000000000e+03 8.284088105411938159e+02
1.568880000000000109e+03 7.750116225144629425e+02
1.567259999999999991e+03 8.248623163340162137e+02
1.565640000000000100e+03 7.869608919998536294e+02
1.564019999999999982e+03 8.723073495119679137e+02
1.562390000000000100e+03 7.574857532411333523e+02
1.560769999999999982e+03 7.305282700127645512e+02
1.559150000000000091e+03 1.257818668630668981e+03
1.557519999999999982e+03 2.488541901990978658e+03
1.555900000000000091e+03 3.061628359868405823e+03
1.554269999999999982e+03 2.475748245446608053e+03
1.552650000000000091e+03 1.564030762583552132e+03
1.551019999999999982e+03 1.085047300379661465e+03
1.549400000000000091e+03 6.708258767761144554e+02
1.547769999999999982e+03 5.258390667901403503e+02
1.546140000000000100e+03 5.501007316088325751e+02
1.544519999999999982e+03 5.144235446780330676e+02
1.542890000000000100e+03 3.512818617146367615e+02
1.541259999999999991e+03 2.988886535559031472e+02
1.539640000000000100e+03 2.035557032978540519e+02
1.538009999999999991e+03 1.021591473570260860e+02
1.536380000000000109e+03 1.452110662208797294e+02
1.534750000000000000e+03 1.698114598894062510e+02
1.533119999999999891e+03 -3.573967163739143871e+01
1.531490000000000009e+03 1.669576716404772014e+02
1.529859999999999900e+03 1.947034897230150818e+02
1.528230000000000018e+03 1.396977826102338440e+02
1.526599999999999909e+03 2.964055030212330166e+01
1.524970000000000027e+03 -6.356820720131509006e+01
1.523339999999999918e+03 8.707151009992230684e+01
1.521710000000000036e+03 -1.674029779417105601e+01
1.520069999999999936e+03 9.708815471768684802e+01
1.518440000000000055e+03 2.905735938243778946e+02
1.516809999999999945e+03 2.482075077357476403e+02
1.515180000000000064e+03 2.289896451780805364e+00
1.513539999999999964e+03 2.356137369640200632e+02
1.511910000000000082e+03 1.046933726808456413e+02
1.510269999999999982e+03 2.691150568012308213e+02
1.508640000000000100e+03 1.979919395188371709e+02
1.507000000000000000e+03 2.385114672473755491e+02
1.505369999999999891e+03 2.378855969657743117e+02
1.503730000000000018e+03 2.112029683024593396e+02
1.502099999999999909e+03 6.547434502164105652e+01
1.500460000000000036e+03 6.188955996648292057e+01
1.498819999999999936e+03 5.225384632337227231e+01
1.497190000000000055e+03 1.052712422394506575e+02
1.495549999999999955e+03 5.763337220448374865e+01
1.493910000000000082e+03 -1.136554264184451313e+02
1.492269999999999982e+03 -1.871951536293236131e+02
1.490640000000000100e+03 -2.782966320246487157e+00
1.489000000000000000e+03 -2.653248499229775916e+02
1.487359999999999900e+03 -9.911766211366921198e+01
1.485720000000000027e+03 -6.716140289232862415e+01
1.484079999999999927e+03 -8.245607225893763825e+01
1.482440000000000055e+03 -2.592016702135151718e+02
1.480799999999999955e+03 -2.361981967560532212e+02
1.479160000000000082e+03 -1.507456518865474209e+02
1.477519999999999982e+03 -8.964403560500431922e+01
1.475869999999999891e+03 -1.776934980760088365e+02
1.474230000000000018e+03 -4.651934397544646345e+02
1.472589999999999918e+03 -2.410443100208685792e+02
1.470950000000000045e+03 -2.071461088752475916e+02
1.469299999999999955e+03 -6.819778779396801838e+01
1.467660000000000082e+03 -2.458011446083401097e+02
1.466019999999999982e+03 -1.904554300106574374e+02
1.464369999999999891e+03 -2.081586960050735797e+02
1.462730000000000018e+03 -4.036145393673905346e+02
1.461079999999999927e+03 -2.843187630654501845e+02
1.459440000000000055e+03 -3.413761643877696770e+02
1.457789999999999964e+03 -1.764813457894815656e+02
1.456150000000000091e+03 -3.944403050717919541e+02
1.454500000000000000e+03 -3.160464441771619022e+02
1.452849999999999909e+03 -1.815029116141449776e+02
1.451210000000000036e+03 -2.944140582284853735e+02
1.449559999999999945e+03 -1.871714833691221429e+02
1.447910000000000082e+03 -3.832792368413793156e+02
1.446259999999999991e+03 -1.546373186452583468e+02
1.444609999999999900e+03 -2.945457287807475950e+02
1.442970000000000027e+03 9.889678528816148173e+00
1.441319999999999936e+03 3.538031068967029569e+01
1.439670000000000073e+03 -5.737938548110105330e+01
1.438019999999999982e+03 -9.848940998348189169e+01
1.436369999999999891e+03 -2.137497628174969577e+02
1.434720000000000027e+03 -2.425604439831222408e+02
1.433059999999999945e+03 -4.288137930145567225e+02
1.431410000000000082e+03 -5.665248298030091973e+02
1.429759999999999991e+03 -6.980861949230820755e+02
1.428109999999999900e+03 -6.463978883747622604e+02
1.426460000000000036e+03 -6.128599101580693969e+02
1.424799999999999955e+03 -5.263630927806370892e+02
1.423150000000000091e+03 -7.483254701867663243e+02
1.421500000000000000e+03 -5.316381759245123249e+02
1.419839999999999918e+03 -4.571911375557829160e+02
1.418190000000000055e+03 -5.005041989163510152e+02
1.416529999999999973e+03 -6.178569122651388170e+02
1.414880000000000109e+03 -7.229703292485319253e+02
1.413220000000000027e+03 -7.298227943148267514e+02
1.411569999999999936e+03 -4.815365669210441411e+02
1.409910000000000082e+03 -6.664887837048445363e+02
1.408259999999999991e+03 -6.385029119338832970e+02
1.406599999999999909e+03 -6.255548804351892613e+02
1.404940000000000055e+03 -7.453565733627983718e+02
1.403279999999999973e+03 -5.860079907167091733e+02
1.401630000000000109e+03 -7.102225291509857925e+02
1.399970000000000027e+03 -5.568736982223999803e+02
1.398309999999999945e+03 -6.416745917201224074e+02
1.396650000000000091e+03 -8.470252096441508911e+02
1.394990000000000009e+03 -5.896255519944716070e+02
1.393329999999999927e+03 -4.407756187711020175e+02
1.391670000000000073e+03 -7.346754099740319361e+02
1.390009999999999991e+03 -4.954249256032671838e+02
1.388349999999999909e+03 -6.551241656588063051e+02
1.386690000000000055e+03 -5.392731301406456623e+02
1.385029999999999973e+03 -6.130718190487896209e+02
1.383369999999999891e+03 -6.626202323832403636e+02
1.381700000000000045e+03 -4.279013391111038800e+02
1.380039999999999964e+03 -4.383488984332470864e+02
1.378380000000000109e+03 -5.855461821817079908e+02
1.376710000000000036e+03 -7.220752489043879905e+02
1.375049999999999955e+03 -5.293716786405457242e+02
1.373390000000000100e+03 -4.480178328030015109e+02
1.371720000000000027e+03 -4.956948595204921730e+02
1.370059999999999945e+03 -4.652401596706586133e+02
1.368390000000000100e+03 -5.188157248215647996e+02
1.366730000000000018e+03 -5.347601709594346175e+02
1.365059999999999945e+03 -4.486342745437505073e+02
1.363390000000000100e+03 -5.425574950000809622e+02
1.361730000000000018e+03 -5.389505086870485684e+02
1.360059999999999945e+03 -6.296722675767996407e+02
1.358390000000000100e+03 -4.744431433385543642e+02
1.356730000000000018e+03 -5.350847245746263070e+02
1.355059999999999945e+03 -5.117541387697929167e+02
1.353390000000000100e+03 -5.676726698369748192e+02
1.351720000000000027e+03 -6.131403177761712868e+02
1.350049999999999955e+03 -6.794570825873743161e+02
1.348380000000000109e+03 -5.661229642705875449e+02
1.346710000000000036e+03 -5.903379628258189769e+02
1.345039999999999964e+03 -4.679020782530569704e+02
1.343369999999999891e+03 -4.383153105523051636e+02
1.341700000000000045e+03 -5.297776597235679219e+02
1.340029999999999973e+03 -6.405891257668408798e+02
1.338359999999999900e+03 -5.240497086821269477e+02
1.336680000000000064e+03 -5.390341635944532754e+02
1.335009999999999991e+03 -4.657926755643748038e+02
1.333339999999999918e+03 -4.149003044063065317e+02
1.331660000000000082e+03 -4.298308893526227621e+02
1.329990000000000009e+03 -3.878364472491921333e+02
1.328319999999999936e+03 -3.532911220177666110e+02
1.326640000000000100e+03 -3.366678369980691059e+02
1.324970000000000027e+03 -4.080204408212885028e+02
1.323289999999999964e+03 -3.016944736529585498e+02
1.321619999999999891e+03 -3.744450065308046760e+02
1.319940000000000055e+03 -1.920163572138480959e+02
1.318259999999999991e+03 -6.633621356563162408e+01
1.316589999999999918e+03 -1.910334876807428373e+02
1.314910000000000082e+03 -2.158506618839019211e+02
1.313230000000000018e+03 -6.616341755798202939e+00
1.311559999999999945e+03 5.663964289183786605e+01
1.309880000000000109e+03 5.877664516856384580e+01
1.308200000000000045e+03 7.365141776546806796e+00
1.306519999999999982e+03 9.750513271578165586e+01
1.304839999999999918e+03 4.659966179862749414e+02
1.303160000000000082e+03 5.188395975880157494e+02
1.301480000000000018e+03 4.363340715210179042e+02
1.299799999999999955e+03 4.788800397852646711e+02
1.298119999999999891e+03 5.646775023807749676e+02
1.296440000000000055e+03 7.827264593075306038e+02
1.294759999999999991e+03 6.573269105655417661e+02
1.293069999999999936e+03 6.064120576191671717e+02
1.291390000000000100e+03 7.174158040535621694e+02
1.289710000000000036e+03 1.030571044819211238e+03
1.288029999999999973e+03 9.618777799161252915e+02
1.286339999999999918e+03 1.043370438688631111e+03
1.284660000000000082e+03 1.090580468961914448e+03
1.282980000000000018e+03 1.244741993566454767e+03
1.281289999999999964e+03 1.487990363212724333e+03
1.279609999999999900e+03 1.431355182993651397e+03
1.277920000000000073e+03 1.512907462668539665e+03
1.276240000000000009e+03 1.646275577625849110e+03
1.274549999999999955e+03 1.889331767329364084e+03
1.272859999999999900e+03 2.135440066216367995e+03
1.271180000000000064e+03 2.541463277195198316e+03
1.269490000000000009e+03 2.747275486110822385e+03
1.267799999999999955e+03 2.997639804209949943e+03
1.266109999999999900e+03 3.262656231492564984e+03
1.264420000000000073e+03 3.317324767958678422e+03
1.262740000000000009e+03 3.810206676649286237e+03
1.261049999999999955e+03 4.251179123144025652e+03
1.259359999999999900e+03 4.874103678822248185e+03
1.257670000000000073e+03 5.101680343683983665e+03
1.255980000000000018e+03 5.805509117729197897e+03
1.254289999999999964e+03 6.344890000957911980e+03
1.252599999999999909e+03 6.597322993370118638e+03
1.250900000000000091e+03 7.436548990293384122e+03
1.249210000000000036e+03 8.034486509410940926e+03
1.247519999999999982e+03 8.613076137712003401e+03
1.245829999999999927e+03 9.355317875196553359e+03
1.244140000000000100e+03 9.883211721864594438e+03
1.242440000000000055e+03 1.019540011655998751e+04
1.240750000000000000e+03 1.096949848993338674e+04
1.239059999999999945e+03 1.165324897249027708e+04
1.237359999999999900e+03 1.232649492991410079e+04
1.235670000000000073e+03 1.268514993917633910e+04
1.233970000000000027e+03 1.344060104180673443e+04
1.232279999999999973e+03 1.376946057777433089e+04
1.230579999999999927e+03 1.451111682561129419e+04
1.228880000000000109e+03 1.495622580113296135e+04
1.227190000000000055e+03 1.524504228132776552e+04
1.225490000000000009e+03 1.582245640205599921e+04
1.223789999999999964e+03 1.627302325046894111e+04
1.222089999999999918e+03 1.672934282656660071e+04
1.220400000000000091e+03 1.743136866851046943e+04
1.218700000000000045e+03 1.775479338981468754e+04
1.217000000000000000e+03 1.843287083880362843e+04
1.215299999999999955e+03 1.892970101547726517e+04
1.213599999999999909e+03 1.921608391983561887e+04
1.211900000000000091e+03 1.958321955187867570e+04
1.210200000000000045e+03 1.996050791160644076e+04
1.208500000000000000e+03 2.040974899901892059e+04
1.206799999999999955e+03 2.061334281411610937e+04
1.205099999999999909e+03 2.122098935689800419e+04
1.203390000000000100e+03 2.142163819083161070e+04
1.201690000000000055e+03 2.181749049914577336e+04
1.199990000000000009e+03 2.203549553514464787e+04
1.198289999999999964e+03 2.248545329882823717e+04
1.196579999999999927e+03 2.278411459613942498e+04
1.194880000000000109e+03 2.302107812535528137e+04
1.193170000000000073e+03 2.365694581034893054e+04
1.191470000000000027e+03 2.366341510509705040e+04
1.189759999999999991e+03 2.440458917777316310e+04
1.188059999999999945e+03 2.478186423805356026e+04
1.186349999999999909e+03 2.495094469841212413e+04
1.184650000000000091e+03 2.508482552422479057e+04
1.182940000000000055e+03 2.554401237226581725e+04
1.181230000000000018e+03 2.572025257014173621e+04
1.179529999999999973e+03 2.631669219933423301e+04
1.177819999999999936e+03 2.622203878489261842e+04
1.176109999999999900e+03 2.720763872028591140e+04
1.174400000000000091e+03 2.704559200551408867e+04
1.172690000000000055e+03 2.696709864057717277e+04
1.170980000000000018e+03 2.783055862547515426e+04
1.169269999999999982e+03 2.767307196020803531e+04
1.167559999999999945e+03 2.787383864477581665e+04
1.165849999999999909e+03 2.849845867917849682e+04
1.164140000000000100e+03 2.851063206341607292e+04
1.162430000000000064e+03 2.867175879748855368e+04
1.160720000000000027e+03 2.884023888139593328e+04
1.159009999999999991e+03 2.915037231513820734e+04
1.157289999999999964e+03 2.949541707306911485e+04
1.155579999999999927e+03 2.962145751846853091e+04
1.153869999999999891e+03 2.983645131370284798e+04
1.152160000000000082e+03 3.057229845877205298e+04
1.150440000000000055e+03 3.067775817780374200e+04
1.148730000000000018e+03 3.059651233453008899e+04
1.147009999999999991e+03 3.112627969101807321e+04
1.145299999999999955e+03 3.144734085940156365e+04
1.143579999999999927e+03 3.146381585334584815e+04
1.141869999999999891e+03 3.164938403338647186e+04
1.140150000000000091e+03 3.248896666478705447e+04
1.138430000000000064e+03 3.265820327182171604e+04
1.136720000000000027e+03 3.249553212534170598e+04
1.135000000000000000e+03 3.286287636983266566e+04
1.133279999999999973e+03 3.340327458995767665e+04
1.131559999999999945e+03 3.350112678571676224e+04
1.129839999999999918e+03 3.361213295710991224e+04
1.128130000000000109e+03 3.411422980775374890e+04
1.126410000000000082e+03 3.390824361660320574e+04
1.124690000000000055e+03 3.426481140108671389e+04
1.122970000000000027e+03 3.442373316120429081e+04
1.121250000000000000e+03 3.462620889695591904e+04
1.119519999999999982e+03 3.463990347378411388e+04
1.117799999999999955e+03 3.493238747461570892e+04
1.116079999999999927e+03 3.509262545108135964e+04
1.114359999999999900e+03 3.499731740318108496e+04
1.112640000000000100e+03 3.481946333091485576e+04
1.110910000000000082e+03 3.543552967060881929e+04
1.109190000000000055e+03 3.550148386342255981e+04
1.107470000000000027e+03 3.580089203187034582e+04
1.105740000000000009e+03 3.537392155553828343e+04
1.104019999999999982e+03 3.576033798906604352e+04
1.102289999999999964e+03 3.596407640726207319e+04
1.100569999999999936e+03 3.662570110586978262e+04
1.098839999999999918e+03 3.634394841859389271e+04
1.097119999999999891e+03 3.734708138228155440e+04
1.095390000000000100e+03 3.733483758953377401e+04
1.093660000000000082e+03 3.748754840186818910e+04
1.091940000000000055e+03 3.764754392008169089e+04
1.090210000000000036e+03 3.731116362694420241e+04
1.088480000000000018e+03 3.856073793888891669e+04
1.086750000000000000e+03 3.863086685591583228e+04
1.085019999999999982e+03 3.928385037802494480e+04
1.083299999999999955e+03 3.949981702965607110e+04
1.081569999999999936e+03 3.990230944629329315e+04
1.079839999999999918e+03 4.043185646801270195e+04
1.078109999999999900e+03 4.084855809481431788e+04
1.076369999999999891e+03 4.068598706480358669e+04
1.074640000000000100e+03 4.131619821740592306e+04
1.072910000000000082e+03 4.132106397509046656e+04
1.071180000000000064e+03 4.164938433785721281e+04
1.069450000000000045e+03 4.163405930570614873e+04
1.067720000000000027e+03 4.155238887863729906e+04
1.065980000000000018e+03 4.188934769039847015e+04
1.064250000000000000e+03 4.207748678913034382e+04
1.062509999999999991e+03 4.184895575978934357e+04
1.060779999999999973e+03 4.195070438432192896e+04
1.059049999999999955e+03 4.232770761393672001e+04
1.057309999999999945e+03 4.167154166421206901e+04
1.055579999999999927e+03 4.136715441962757905e+04
1.053839999999999918e+03 4.124159862880076980e+04
1.052099999999999909e+03 4.114499807615327154e+04
1.050369999999999891e+03 4.048687527808801678e+04
1.048630000000000109e+03 4.014598488433835155e+04
1.046890000000000100e+03 3.985414972876799584e+04
1.045150000000000091e+03 3.979836981137697148e+04
1.043420000000000073e+03 3.926516638054946816e+04
1.041680000000000064e+03 3.872949662205627101e+04
1.039940000000000055e+03 3.846438210174239066e+04
1.038200000000000045e+03 3.757852281960782420e+04
1.036460000000000036e+03 3.736411877565257601e+04
1.034720000000000027e+03 3.694166996987665334e+04
1.032980000000000018e+03 3.606267640228004166e+04
1.031240000000000009e+03 3.551293807286274387e+04
1.029500000000000000e+03 3.526215498162476433e+04
1.027750000000000000e+03 3.483940873732909677e+04
1.026009999999999991e+03 3.453153643991055287e+04
1.024269999999999982e+03 3.338331938067132432e+04
1.022529999999999973e+03 3.320945755961141549e+04
1.020779999999999973e+03 3.289243385716151533e+04
1.019039999999999964e+03 3.231038282992103632e+04
1.017299999999999955e+03 3.201088704085987411e+04
1.015549999999999955e+03 3.142663032461560942e+04
1.013809999999999945e+03 3.152454532937387921e+04
1.012059999999999945e+03 3.145640004369514645e+04
1.010320000000000050e+03 3.040442584227285261e+04
1.008570000000000050e+03 3.066309198715963430e+04
1.006820000000000050e+03 3.010001400697181816e+04
1.005080000000000041e+03 2.994080615500908243e+04
1.003330000000000041e+03 2.950283960538679094e+04
1.001580000000000041e+03 2.930682893068989870e+04
9.998319999999999936e+02 2.945565679022612312e+04
9.980839999999999463e+02 2.895104039704661045e+04
9.963350000000000364e+02 2.853388848527247319e+04
9.945850000000000364e+02 2.831430115063457197e+04
9.928350000000000364e+02 2.783616969092207728e+04
9.910850000000000364e+02 2.764119410613497894e+04
9.893350000000000364e+02 2.762487439627328422e+04
9.875839999999999463e+02 2.766141945511899394e+04
9.858319999999999936e+02 2.723412937851242168e+04
9.840810000000000173e+02 2.685698634690633116e+04
9.823279999999999745e+02 2.695101723343678896e+04
9.805760000000000218e+02 2.669269516496772121e+04
9.788229999999999791e+02 2.637893815283649019e+04
9.770689999999999600e+02 2.624784629299287917e+04
9.753160000000000309e+02 2.580760144616647449e+04
9.735620000000000118e+02 2.561702181561245379e+04
9.718070000000000164e+02 2.517430749733536868e+04
9.700520000000000209e+02 2.549974937372508793e+04
9.682970000000000255e+02 2.515574744478162756e+04
9.665410000000000537e+02 2.480771098821384658e+04
9.647849999999999682e+02 2.488973079037064599e+04
9.630280000000000200e+02 2.467151619305511485e+04
9.612709999999999582e+02 2.440945791855838615e+04
9.595140000000000100e+02 2.440775596688046789e+04
9.577559999999999718e+02 2.397521977601144317e+04
9.559980000000000473e+02 2.420133997209195513e+04
9.542390000000000327e+02 2.402512605727931441e+04
9.524800000000000182e+02 2.389166859358343208e+04
9.507210000000000036e+02 2.400976758100430015e+04
9.489610000000000127e+02 2.364353261799569009e+04
9.472000000000000455e+02 2.375896380089050945e+04
9.454400000000000546e+02 2.347684190063380811e+04
9.436789999999999736e+02 2.316228621052074595e+04
9.419170000000000300e+02 2.319709682693898503e+04
9.401549999999999727e+02 2.332556408719459068e+04
9.383930000000000291e+02 2.280998799128754763e+04
9.366309999999999718e+02 2.273866853921786969e+04
9.348680000000000518e+02 2.256381558656429843e+04
9.331040000000000418e+02 2.250692922982397431e+04
9.313400000000000318e+02 2.227009964558385400e+04
9.295760000000000218e+02 2.214392683384394695e+04
9.278110000000000355e+02 2.191442077893707028e+04
9.260460000000000491e+02 2.178857156091655997e+04
9.242809999999999491e+02 2.168117917978241530e+04
9.225149999999999864e+02 2.136305371649231165e+04
9.207480000000000473e+02 2.137489526770758675e+04
9.189819999999999709e+02 2.116028363925596204e+04
9.172150000000000318e+02 2.069983908976885505e+04
9.154470000000000027e+02 2.054786171596234271e+04
9.136789999999999736e+02 2.018544137241961289e+04
9.119109999999999445e+02 2.020767805914066048e+04
9.101420000000000528e+02 2.015518208282699197e+04
9.083730000000000473e+02 1.970844320130922279e+04
9.066029999999999518e+02 1.934817178585745569e+04
9.048329999999999700e+02 1.940765752977019292e+04
9.030629999999999882e+02 1.912820043304743740e+04
9.012920000000000300e+02 1.896761096385782002e+04
8.995209999999999582e+02 1.904427871863780456e+04
8.977490000000000236e+02 1.864261423019760696e+04
8.959769999999999754e+02 1.886190703036860941e+04
8.942050000000000409e+02 1.855785711915079446e+04
8.924320000000000164e+02 1.839787512636237807e+04
8.906589999999999918e+02 1.839035048686324080e+04
8.888849999999999909e+02 1.854359389518613898e+04
8.871109999999999900e+02 1.855159472151287264e+04
8.853360000000000127e+02 1.843856372512727103e+04
8.835620000000000118e+02 1.830167941982808406e+04
8.817859999999999445e+02 1.838597418062075303e+04
8.800109999999999673e+02 1.859991563249982937e+04
8.782340000000000373e+02 1.873073634483340356e+04
8.764579999999999700e+02 1.894880374825337640e+04
8.746810000000000400e+02 1.876863965289875341e+04
8.729039999999999964e+02 1.925123316991060710e+04
8.711259999999999764e+02 1.941719531783241473e+04
8.693479999999999563e+02 1.980241514298122274e+04
8.675689999999999600e+02 2.019890372879753340e+04
8.657899999999999636e+02 2.096195005673785636e+04
8.640109999999999673e+02 2.159555412680219524e+04
8.622309999999999945e+02 2.227662711982218025e+04
8.604510000000000218e+02 2.296445791989968711e+04
8.586699999999999591e+02 2.437225777283635398e+04
8.568890000000000100e+02 2.583291549780052082e+04
8.551069999999999709e+02 2.741074240560032194e+04
8.533250000000000455e+02 2.916482725043412574e+04
8.515430000000000064e+02 3.111997003230192786e+04
8.497599999999999909e+02 3.307998215956718195e+04
8.479769999999999754e+02 3.552285228890940925e+04
8.461939999999999600e+02 3.757778042032862140e+04
8.444099999999999682e+02 3.992057805979832483e+04
8.426259999999999764e+02 4.189243376642446674e+04
8.408410000000000082e+02 4.424995911129652814e+04
8.390560000000000400e+02 4.649734258844098804e+04
8.372699999999999818e+02 4.867509583409976040e+04
8.354840000000000373e+02 5.024160727718337148e+04
8.336970000000000027e+02 5.192078861912267166e+04
8.319109999999999445e+02 5.320471648964129417e+04
8.301230000000000473e+02 5.523092609084258584e+04
8.283360000000000127e+02 5.690238222062318528e+04
8.265480000000000018e+02 5.768120844488103467e+04
8.247590000000000146e+02 6.008530486148159980e+04
8.229700000000000273e+02 6.085615967118328263e+04
8.211810000000000400e+02 6.202487287398605258e+04
8.193909999999999627e+02 6.306325643233196024e+04
8.176009999999999991e+02 6.379109844907736988e+04
8.158099999999999454e+02 6.461371095199920819e+04
8.140190000000000055e+02 6.490268197865544062e+04
8.122279999999999518e+02 6.587131152904607006e+04
8.104360000000000355e+02 6.658971172899598605e+04
8.086440000000000055e+02 6.718517051805165829e+04
8.068509999999999991e+02 6.772600008744584920e+04
8.050579999999999927e+02 6.833358831135369837e+04
8.032649999999999864e+02 6.943163518977520289e+04
8.014710000000000036e+02 6.924285301210051693e+04
7.996760000000000446e+02 6.974544187652354594e+04
7.978819999999999482e+02 6.972957717149620294e+04
7.960860000000000127e+02 6.985029596168622083e+04
7.942910000000000537e+02 6.963406118242585217e+04
7.924950000000000045e+02 6.937629764176049503e+04
7.906979999999999791e+02 6.926620543799351435e+04
7.889020000000000437e+02 6.841875963200836850e+04
7.871040000000000418e+02 6.759269777998968493e+04
7.853070000000000164e+02 6.648618232575284492e+04
7.835090000000000146e+02 6.532743840513059695e+04
7.817100000000000364e+02 6.384256611653581786e+04
7.799109999999999445e+02 6.225985287566821353e+04
7.781119999999999663e+02 6.005689868252776796e+04
7.763120000000000118e+02 5.853281628552742768e+04
7.745119999999999436e+02 5.625409300191756483e+04
7.727110000000000127e+02 5.406814164581088698e+04
7.709099999999999682e+02 5.141544946879446070e+04
7.691090000000000373e+02 4.992981647086830344e+04
7.673070000000000164e+02 4.830205556474041805e+04
7.655040000000000191e+02 4.654056684904259600e+04
7.637019999999999982e+02 4.502822446544505510e+04
7.618990000000000009e+02 4.382445433805034554e+04
7.600950000000000273e+02 4.285275656554498710e+04
7.582910000000000537e+02 4.223081816944820457e+04
7.564869999999999663e+02 4.181433914975998778e+04
7.546820000000000164e+02 4.103103264952987956e+04
7.528769999999999527e+02 4.063028559155409312e+04
7.510710000000000264e+02 3.984231118476440315e+04
7.492649999999999864e+02 3.952799628611127264e+04
7.474579999999999700e+02 3.932055417044521164e+04
7.456509999999999536e+02 3.845607162883442652e+04
7.438440000000000509e+02 3.850644866127893329e+04
7.420359999999999445e+02 3.849319864155293908e+04
7.402279999999999518e+02 3.806110826183744211e+04
7.384189999999999827e+02 3.792089096189837437e+04
7.366100000000000136e+02 3.758323336796151852e+04
7.348010000000000446e+02 3.730253548002686875e+04
7.329909999999999854e+02 3.739761083689353836e+04
7.311810000000000400e+02 3.762544596579060453e+04
7.293700000000000045e+02 3.733125447158186580e+04
7.275589999999999691e+02 3.723462281546823215e+04
7.257469999999999573e+02 3.752186466841463698e+04
7.239349999999999454e+02 3.710536642555732396e+04
7.221230000000000473e+02 3.697322808689628437e+04
7.203099999999999454e+02 3.729916342259385419e+04
7.184969999999999573e+02 3.759045872862536635e+04
7.166829999999999927e+02 3.782382784132730740e+04
7.148690000000000282e+02 3.748665699053734716e+04
7.130539999999999736e+02 3.758366007880262623e+04
7.112390000000000327e+02 3.765452326978665224e+04
7.094239999999999782e+02 3.797064656348941207e+04
7.076079999999999472e+02 3.809664396181963821e+04
7.057920000000000300e+02 3.845940152911574114e+04
7.039750000000000227e+02 3.826193333357007941e+04
7.021580000000000155e+02 3.833842537327391619e+04
7.003400000000000318e+02 3.825959178273972793e+04
6.985220000000000482e+02 3.867861849377515318e+04
6.967039999999999509e+02 3.868100550638019922e+04
6.948849999999999909e+02 3.873146705459311488e+04
6.930660000000000309e+02 3.938258897073224944e+04
6.912459999999999809e+02 3.907858555522896495e+04
6.894260000000000446e+02 3.910864257404499222e+04
6.876059999999999945e+02 3.953006002718034870e+04
6.857849999999999682e+02 3.977155231470161380e+04
6.839629999999999654e+02 3.985791953628055489e+04
6.821420000000000528e+02 4.016373285852355184e+04
6.803189999999999600e+02 4.034613568108336767e+04
6.784969999999999573e+02 4.057788460430722625e+04
6.766730000000000018e+02 4.066422322735562193e+04
6.748500000000000227e+02 4.114820795106806327e+04
6.730259999999999536e+02 4.107146794135098753e+04
6.712019999999999982e+02 4.153468863189051626e+04
6.693769999999999527e+02 4.197588472211512999e+04
6.675520000000000209e+02 4.235524157917188131e+04
6.657259999999999991e+02 4.297557396910128591e+04
6.638999999999999773e+02 4.307956719247487490e+04
6.620729999999999791e+02 4.347913608198168367e+04
6.602459999999999809e+02 4.400456587158118782e+04
6.584189999999999827e+02 4.460635656127338734e+04
6.565910000000000082e+02 4.524502308376572910e+04
6.547630000000000337e+02 4.554695057303577778e+04
6.529339999999999691e+02 4.610445402851248218e+04
6.511050000000000182e+02 4.671241851748840418e+04
6.492749999999999773e+02 4.727225910615047178e+04
6.474450000000000500e+02 4.816666079506975075e+04
6.456150000000000091e+02 4.937482358424623089e+04
6.437839999999999918e+02 4.975506264004945115e+04
6.419529999999999745e+02 5.000946286290435819e+04
6.401209999999999809e+02 5.146913948601146694e+04
6.382889999999999873e+02 5.263477734300123120e+04
6.364560000000000173e+02 5.382719173394163954e+04
6.346230000000000473e+02 5.502866742563215666e+04
6.327899999999999636e+02 5.627600441807280004e+04
6.309560000000000173e+02 5.769871811167833948e+04
6.291219999999999573e+02 5.915349317293796048e+04
6.272870000000000346e+02 6.078484506920686545e+04
6.254519999999999982e+02 6.243315840007029328e+04
6.236159999999999854e+02 6.441174869986037083e+04
6.217799999999999727e+02 6.673400050122190441e+04
6.199439999999999600e+02 6.909601380415487802e+04
6.181069999999999709e+02 7.165570424350244866e+04
6.162690000000000055e+02 7.381827191981213400e+04
6.144320000000000164e+02 7.674308552984526614e+04
6.125929999999999609e+02 7.924229217933582549e+04
6.107549999999999955e+02 8.206394476254982874e+04
6.089160000000000537e+02 8.510587478393039783e+04
6.070760000000000218e+02 8.783828234413450991e+04
6.052359999999999900e+02 8.985845167418269557e+04
6.033959999999999582e+02 9.135868277407492860e+04
6.015549999999999500e+02 9.316299158064354560e+04
5.997140000000000555e+02 9.450336222421561251e+04
5.978719999999999573e+02 9.488981070881929190e+04
5.960299999999999727e+02 9.479432109762229084e+04
5.941870000000000118e+02 9.550990946188515227e+04
5.923440000000000509e+02 9.551355979757966998e+04
5.905009999999999764e+02 9.528327210470587306e+04
5.886570000000000391e+02 9.583206255541843711e+04
5.868120000000000118e+02 9.503493125064799096e+04
5.849679999999999609e+02 9.619284581240515399e+04
5.831219999999999573e+02 9.633885495912471379e+04
5.812770000000000437e+02 9.672990997237185366e+04
5.794310000000000400e+02 9.773004343210675870e+04
5.775839999999999463e+02 9.773025543936953181e+04
5.757369999999999663e+02 9.934252968735829927e+04
5.738899999999999864e+02 1.002538661760730902e+05
5.720420000000000300e+02 1.009752813808071369e+05
5.701939999999999600e+02 1.017247588936820102e+05
5.683450000000000273e+02 1.025583152574422566e+05
5.664959999999999809e+02 1.038339339967946144e+05
5.646459999999999582e+02 1.048486317219714401e+05
5.627960000000000491e+02 1.057013918902281584e+05
5.609460000000000264e+02 1.073702145015647839e+05
5.590950000000000273e+02 1.093431162674909574e+05
5.572430000000000518e+02 1.101700972893204453e+05
5.553909999999999627e+02 1.122531408893148910e+05
5.535389999999999873e+02 1.141212470674742799e+05
5.516870000000000118e+02 1.157204158237986121e+05
5.498329999999999700e+02 1.175596809192569635e+05
5.479800000000000182e+02 1.200879918137916102e+05
5.461259999999999764e+02 1.228223823022158613e+05
5.442709999999999582e+02 1.248048524860077159e+05
5.424160000000000537e+02 1.281153854508657532e+05
5.405610000000000355e+02 1.305549811967899732e+05
5.387050000000000409e+02 1.336456568073029921e+05
5.368490000000000464e+02 1.376653952665889228e+05
5.349919999999999618e+02 1.407922137259136070e+05
5.331349999999999909e+02 1.444820951017543848e+05
5.312780000000000200e+02 1.485430393941113143e+05
5.294199999999999591e+02 1.526530638559106446e+05
5.275610000000000355e+02 1.588451685888492502e+05
5.257019999999999982e+02 1.641983363738999178e+05
5.238429999999999609e+02 1.699755672110626183e+05
5.219829999999999472e+02 1.771218784889507224e+05
5.201230000000000473e+02 1.844322528868035297e+05
5.182619999999999436e+02 1.913507078611236357e+05
5.164009999999999536e+02 1.991972260232976114e+05
5.145399999999999636e+02 2.096398073733254860e+05
5.126779999999999973e+02 2.193674694695891812e+05
5.108149999999999977e+02 2.295002124140045780e+05
5.089519999999999982e+02 2.399340186821616662e+05
5.070889999999999986e+02 2.504998882740604458e+05
5.052250000000000227e+02 2.631338388840619591e+05
5.033609999999999900e+02 2.726438528858037898e+05
5.014959999999999809e+02 2.871599480416820734e+05
4.996309999999999718e+02 2.967711066573358257e+05
4.977649999999999864e+02 3.091213465632328298e+05
4.958990000000000009e+02 3.185526499969769502e+05
4.940330000000000155e+02 3.283340169585681870e+05
4.921659999999999968e+02 3.338364653806272545e+05
4.902989999999999782e+02 3.377769773986415821e+05
4.884309999999999832e+02 3.422625710133765242e+05
4.865629999999999882e+02 3.432462282922113081e+05
4.846940000000000168e+02 3.439389673040923662e+05
4.828249999999999886e+02 3.439017700482543441e+05
4.809549999999999841e+02 3.439536546618613065e+05
4.790849999999999795e+02 3.438846030759667628e+05
4.772139999999999986e+02 3.431186334959888482e+05
4.753430000000000177e+02 3.429127277847634978e+05
4.734719999999999800e+02 3.447288859422907117e+05
4.716000000000000227e+02 3.443961262764154235e+05
4.697280000000000086e+02 3.489144305475832080e+05
4.678550000000000182e+02 3.494638171319660032e+05
4.659820000000000277e+02 3.530212677217189921e+05
4.641080000000000041e+02 3.536438007613776717e+05
4.622339999999999804e+02 3.550223978747700457e+05
4.603589999999999804e+02 3.548080775748316082e+05
4.584839999999999804e+02 3.566848214170269202e+05
4.566089999999999804e+02 3.588026294013560400e+05
4.547330000000000041e+02 3.600065201434000046e+05
4.528570000000000277e+02 3.618154750960142701e+05
4.509800000000000182e+02 3.617275129432529211e+05
4.491019999999999754e+02 3.609886337878529448e+05
4.472250000000000227e+02 3.608798002274238388e+05
4.453460000000000036e+02 3.598830685197112616e+05
4.434680000000000177e+02 3.611363824069696711e+05
4.415889999999999986e+02 3.595237794971725671e+05
4.397090000000000032e+02 3.581052598931663670e+05
4.378290000000000077e+02 3.564308047738414025e+05
4.359490000000000123e+02 3.566994141391977319e+05
4.340679999999999836e+02 3.546071069818467367e+05
4.321859999999999786e+02 3.531558834047443233e+05
4.303050000000000068e+02 3.499977053883124026e+05
4.284220000000000255e+02 3.503156301164064789e+05
4.265389999999999873e+02 3.487256195351482020e+05
4.246560000000000059e+02 3.473316736445375718e+05
4.227730000000000246e+02 3.466747924445745884e+05
4.208890000000000100e+02 3.434729951683198451e+05
4.190040000000000191e+02 3.424472819188934518e+05
4.171190000000000282e+02 3.424166334976080107e+05
4.152330000000000041e+02 3.393750692407172755e+05
4.133469999999999800e+02 3.330185698807688896e+05
4.114610000000000127e+02 3.366891354177629692e+05
4.095740000000000123e+02 3.357427852912008530e+05
4.076870000000000118e+02 3.344785001304190955e+05
4.057989999999999782e+02 3.328832994437934249e+05
4.039110000000000014e+02 3.312971637918224442e+05
4.020219999999999914e+02 3.283181127517929417e+05
4.001329999999999814e+02 3.271241268153290148e+05
3.982429999999999950e+02 3.267172256286647171e+05
3.963530000000000086e+02 3.248483896145134349e+05
3.944630000000000223e+02 3.242256187728751684e+05
3.925720000000000027e+02 3.216919328534505912e+05
3.906800000000000068e+02 3.204473319597429363e+05
3.887880000000000109e+02 3.181837963765524910e+05
3.868960000000000150e+02 3.164123261038792552e+05
3.850029999999999859e+02 3.148929410295193666e+05
3.831100000000000136e+02 3.145766213347336161e+05
3.812160000000000082e+02 3.117003869764113915e+05
3.793220000000000027e+02 3.117782180667566136e+05
3.774270000000000209e+02 3.098701346317885327e+05
3.755319999999999823e+02 3.086841167146176449e+05
3.736370000000000005e+02 3.078981643152440665e+05
3.717400000000000091e+02 3.052163176932052593e+05
3.698439999999999941e+02 3.045755165629443945e+05
3.679470000000000027e+02 3.001188012186277774e+05
3.660489999999999782e+02 2.981941717640870484e+05
3.641519999999999868e+02 2.968495877667136374e+05
3.622529999999999859e+02 2.967591100312224589e+05
3.603539999999999850e+02 2.944626980904127122e+05
3.584549999999999841e+02 2.928703519442843972e+05
3.565550000000000068e+02 2.902310919996638549e+05
3.546549999999999727e+02 2.899358979190369719e+05
3.527540000000000191e+02 2.878637901785789290e+05
3.508530000000000086e+02 2.854577483714633272e+05
3.489510000000000218e+02 2.851287930432505673e+05
3.470489999999999782e+02 2.830409037177655264e+05
3.451469999999999914e+02 2.802950803950082045e+05
3.432440000000000282e+02 2.777193437246624962e+05
3.413399999999999750e+02 2.760436938108882750e+05
3.394359999999999786e+02 2.742761100387218175e+05
3.375319999999999823e+02 2.731205924081630073e+05
3.356270000000000095e+02 2.719151617078669951e+05
3.337219999999999800e+02 2.697577972186733386e+05
3.318159999999999741e+02 2.674985197987684514e+05
3.299089999999999918e+02 2.649453295524764108e+05
3.280029999999999859e+02 2.641921847286134725e+05
3.260950000000000273e+02 2.629071481104963459e+05
3.241879999999999882e+02 2.609831569148082926e+05
3.222799999999999727e+02 2.601032531014909910e+05
3.203709999999999809e+02 2.594154367749780358e+05
3.184619999999999891e+02 2.562096869379113195e+05
3.165520000000000209e+02 2.574530247269668325e+05
3.146419999999999959e+02 2.558934290751457447e+05
3.127320000000000277e+02 2.546528999824480270e+05
3.108210000000000264e+02 2.518504586901110888e+05
3.089089999999999918e+02 2.516561053027327871e+05
3.069970000000000141e+02 2.509948186139416939e+05
3.050849999999999795e+02 2.484555986237378092e+05
3.031720000000000255e+02 2.470754667129135341e+05
3.012590000000000146e+02 2.451044015704630874e+05
2.993450000000000273e+02 2.428634246470020735e+05
2.974300000000000068e+02 2.425205360472924949e+05
2.955160000000000196e+02 2.393246928351460956e+05
2.936000000000000227e+02 2.373279595720431535e+05
2.916850000000000023e+02 2.368682716965033615e+05
2.897690000000000055e+02 2.345156723543486441e+05
2.878519999999999754e+02 2.307121616504505218e+05
2.859350000000000023e+02 2.304107179944376985e+05
2.840169999999999959e+02 2.292373631165831757e+05
2.820989999999999895e+02 2.263210753565830237e+05
2.801800000000000068e+02 2.246018765147158410e+05
2.782610000000000241e+02 2.230087448607086262e+05
2.763419999999999845e+02 2.221746803945614083e+05
2.744220000000000255e+02 2.192017050216067000e+05
2.725009999999999764e+02 2.178118188469349698e+05
2.705799999999999841e+02 2.168030000002438610e+05
2.686589999999999918e+02 2.149922484815333446e+05
2.667370000000000232e+02 2.128495863363478275e+05
2.648149999999999977e+02 2.108249915892579884e+05
2.628919999999999959e+02 2.104614863559597288e+05
2.609689999999999941e+02 2.092340485909086419e+05
2.590450000000000159e+02 2.065117004799887363e+05
2.571209999999999809e+02 2.049354199075040233e+05
2.551959999999999980e+02 2.033252291295630566e+05
2.532709999999999866e+02 2.038521059602817986e+05
2.513449999999999989e+02 2.023270727260297863e+05
2.494190000000000111e+02 2.022391071706985240e+05
2.474919999999999902e+02 1.995402316909549991e+05
2.455649999999999977e+02 1.996944239604297036e+05
2.436370000000000005e+02 1.986427064461236587e+05
2.417090000000000032e+02 1.976300567513698188e+05
2.397800000000000011e+02 1.970854974135396769e+05
2.378509999999999991e+02 1.968130059656322701e+05
2.359219999999999970e+02 1.956065824076475401e+05
2.339919999999999902e+02 1.954972493825583369e+05
2.320610000000000070e+02 1.942870069960024266e+05
2.301299999999999955e+02 1.935688326402196544e+05
2.281990000000000123e+02 1.919987263152100204e+05
2.262669999999999959e+02 1.916477108048879600e+05
2.243340000000000032e+02 1.916497862150007568e+05
2.224010000000000105e+02 1.911459297968830506e+05
2.204679999999999893e+02 1.901221415505348996e+05
2.185339999999999918e+02 1.897214444009582803e+05
2.165999999999999943e+02 1.876458154937041108e+05
2.146649999999999920e+02 1.873272778243638459e+05
2.127299999999999898e+02 1.871358084679354215e+05
2.107940000000000111e+02 1.869384304906362377e+05
2.088569999999999993e+02 1.853821439984324970e+05
2.069209999999999923e+02 1.854999028235309524e+05
2.049830000000000041e+02 1.844357763766255230e+05
2.030449999999999875e+02 1.838767184546191711e+05
2.011069999999999993e+02 1.835147290575118386e+05
1.991680000000000064e+02 1.827568314636358409e+05
1.972290000000000134e+02 1.822570024653942673e+05
1.952899999999999920e+02 1.812412420627871179e+05
1.933489999999999895e+02 1.804505970247944933e+05
1.914089999999999918e+02 1.807859973041040357e+05
1.894670000000000130e+02 1.807955131604531780e+05
1.875260000000000105e+02 1.800690743341044872e+05
1.855840000000000032e+02 1.807977277711410425e+05
1.836409999999999911e+02 1.798254735778575123e+05
1.816980000000000075e+02 1.794682882635148126e+05
1.797539999999999907e+02 1.790411954606511572e+05
1.778100000000000023e+02 1.799381716076461598e+05
1.758650000000000091e+02 1.802942404079923290e+05
1.739199999999999875e+02 1.803153782291514799e+05
1.719749999999999943e+02 1.801465850711235835e+05
1.700289999999999964e+02 1.801238847438782686e+05
1.680819999999999936e+02 1.806062773539291229e+05
1.661349999999999909e+02 1.802557391268110368e+05
1.641870000000000118e+02 1.821822939790801611e+05
1.622390000000000043e+02 1.822339180652441573e+05
1.602909999999999968e+02 1.827706113853029674e+05
1.583420000000000130e+02 1.844283979624540952e+05
1.563919999999999959e+02 1.855252779033753031e+05
1.544420000000000073e+02 1.863292272204283800e+05
1.524919999999999902e+02 1.858792459136133257e+05
1.505409999999999968e+02 1.852253581484558817e+05
1.485889999999999986e+02 1.862675640317432699e+05
1.466370000000000005e+02 1.857398394335455378e+05
1.446850000000000023e+02 1.865961843538626563e+05
1.427319999999999993e+02 1.876136231006945891e+05
1.407779999999999916e+02 1.907001557809380465e+05
1.388240000000000123e+02 1.916267581222253211e+05
1.368700000000000045e+02 1.903404301245564129e+05
1.349149999999999920e+02 1.903371962385514344e+05
1.329590000000000032e+02 1.917580565712166135e+05
1.310029999999999859e+02 1.931879867076005030e+05
1.290469999999999970e+02 1.936369866477031028e+05
1.270900000000000034e+02 1.938750809849107172e+05
1.251320000000000050e+02 1.959642698263389757e+05
1.231740000000000066e+02 1.960215286143068224e+05
1.212159999999999940e+02 1.967238573488142574e+05
1.192570000000000050e+02 1.958142807661596453e+05
1.172980000000000018e+02 1.961317742015098338e+05
1.153379999999999939e+02 1.949393624626647797e+05
1.133769999999999953e+02 1.925030456569043745e+05
1.114159999999999968e+02 1.926587990121885377e+05
1.094549999999999983e+02 1.959876225285172986e+05
1.074929999999999950e+02 1.962615411568216514e+05
1.055300000000000011e+02 1.923365550044909760e+05
1.035669999999999931e+02 1.842136391563906509e+05
1.016039999999999992e+02 1.789797936125206761e+05
9.963989999999999725e+01 1.745830459765108826e+05
9.767539999999999623e+01 1.731493787755687954e+05
9.571040000000000703e+01 1.731787945692959765e+05
9.374490000000000123e+01 1.756502934114692325e+05
9.177899999999999636e+01 1.767868728321148665e+05
8.981250000000000000e+01 1.762175379289773991e+05
8.784550000000000125e+01 1.759012862356974510e+05
8.587800000000000011e+01 1.769771178061065439e+05
8.390999999999999659e+01 1.764120326940498489e+05
8.194150000000000489e+01 1.725660309533862455e+05
7.997239999999999327e+01 1.667571151832931791e+05
7.800289999999999679e+01 1.658832803506403870e+05
7.603289999999999793e+01 1.640525290510403283e+05
7.406239999999999668e+01 1.600708613384065684e+05
7.209130000000000393e+01 1.507902798263502482e+05
7.011979999999999791e+01 1.323057794530416140e+05
6.814770000000000039e+01 1.084303653954019974e+05
6.617520000000000380e+01 8.241093257724071736e+04
6.420210000000000150e+01 5.640948618989846000e+04
6.222849999999999682e+01 3.610672372049472324e+04
6.025439999999999685e+01 2.235044522304164275e+04
5.827980000000000160e+01 1.295785075156501262e+04
