155.51091577746652, 0.013431305536568683
158.85240271306793, 0.009041353383458572
161.71035224068848, 0.021707762052189272
162.24051422118956, 0.012758458646616622
168.20376210595992, 0.0268209586466166
166.12307391413668, 0.01736372180451129
166.0008672719268, 0.012703634085213134
171.26652120833916, 0.03531665702718334
177.2390512886948, 0.03860017691287043
175.89060407868988, 0.031234335839599003
179.72710848939434, 0.048449248120300825
182.3640771196727, 0.04143170426065168
185.54960198864154, 0.054020794172932374
182.72169583406543, 0.046475563909774475
191.00963655108762, 0.0614097744360903
189.77908800506503, 0.05305451127819549
193.51643349546674, 0.07258202323991803
198.15888101677365, 0.08020532099479472
202.9277716854586, 0.0870676691729324
206.55333145744373, 0.09743250170881756
207.71661740333548, 0.10688824333561175
206.38251425299754, 0.08693609022556392
211.39108832181938, 0.11569842575187972
213.00077980002385, 0.12421679197994995
211.3379300891229, 0.10667293233082709
218.22502880981904, 0.12947865988500662
217.34406902631278, 0.11956766917293238
220.12060313408975, 0.13974709501025295
222.0137543571863, 0.1472979323308271
225.63968089038067, 0.15545112781954895
229.90195703709568, 0.16203888627819552
232.09270352669938, 0.16970430884904586
230.07083330808896, 0.15469924812030078
234.1263014758896, 0.18096804511278197
235.49147074934058, 0.19085355434039653
235.01879415248436, 0.16703477443609027
238.20820528103098, 0.18348214285714293
241.485000606757, 0.2043316010614773
240.3349211440164, 0.19488565162907268
239.2721154341333, 0.1897321428571429
243.59902576748078, 0.2154887218045114
246.62545006850075, 0.22762276785714297
245.17818077122703, 0.2199404761904763
248.36723295572736, 0.2360314849624061
251.48938349222178, 0.24403587092731838
253.75779691013852, 0.25293489405331515
251.30099309009836, 0.23200187969924824
257.7246999196218, 0.2627913533834587
258.71810241760727, 0.28459690893901424
258.04175519567957, 0.27423049812030087
255.57054968707024, 0.2708176691729324
257.31667441670254, 0.25437030075187983
262.9166857941668, 0.2948308270676693
263.6865251965686, 0.3052812319259689
262.87202380952385, 0.286387844611529
266.9597589314286, 0.3143882433356119
269.02101143269135, 0.32443609022556397
266.52425186909664, 0.29565319548872193
270.1463010177034, 0.3332902568922306
267.2357894130977, 0.3020676691729324
274.9856881908766, 0.33991717575187985
274.31504955983837, 0.3303571428571429
277.37106603636414, 0.3543703007518798
276.44485786383774, 0.3448308270676693
279.3561481009131, 0.36515977443609027
280.3532105538128, 0.37504337767495677
283.8857227609534, 0.38212149692412856
285.8822448491752, 0.39154135338345875
287.92213902504045, 0.39947556390977457
289.6917155019903, 0.41506109022556403
289.08068229094096, 0.4063439849624061
293.6093854448773, 0.4224404761904763
294.5129414869769, 0.43282424812030085
293.0847307380054, 0.41489661654135346
298.06124993533547, 0.4555848756506652
297.9807385733674, 0.44565319548872195
297.1372169091141, 0.4382048872180452
298.7753007956367, 0.46449456975772774
302.2043392879863, 0.4688439849624061
306.0103471442863, 0.48274270234409566
307.4206246124982, 0.4725720551378447
310.33620219296563, 0.4921574770258982
310.42537283478646, 0.4806860902255641
312.8650721283467, 0.5028195488721805
314.07934290252774, 0.5128930280246071
316.9997834902915, 0.5192994505494506
320.49545733037274, 0.5282659774436091
321.02694337714115, 0.5377435064935066
320.3348791751741, 0.518843984962406
324.7682001583779, 0.5452450570871623
325.80130984441365, 0.5559163533834588
326.6547904309525, 0.5632518796992482
324.22572219226555, 0.5316729323308271
325.64084528908904, 0.536607142857143
329.37064099463953, 0.57484243697479
331.2371695253444, 0.5859711779448622
332.4937146566695, 0.5946813055365687
330.605538448256, 0.5655545112781956
335.42851576463323, 0.6038063909774436
335.09189724916644, 0.586278195488722
338.35503421045644, 0.6131000578368999
339.17679685654, 0.6250998590225565
336.2766334904546, 0.5958176691729324
340.1244842144981, 0.6359638680033419
338.751856411274, 0.6032189849624061
343.7023404836396, 0.6449826489300174
345.1217199347156, 0.6541425679583576
342.6518110849243, 0.6250939849624061
346.6631990592003, 0.6621454203691046
343.36417696133975, 0.6323308270676693
350.07306292407713, 0.6698358877964141
349.6137241396198, 0.6535479323308271
352.25649109679927, 0.6788021189336979
351.1478509933174, 0.6599624060150378
355.15432921546414, 0.6875939849624061
356.9603423786602, 0.6993538533834587
360.9252217469541, 0.7069360902255639
359.2877079635027, 0.6912124060150378
363.7338395440812, 0.7168703007518797
362.47181776459684, 0.7023966165413535
365.70062739489197, 0.7261406356801094
364.9443900216901, 0.7071663533834587
369.7150877293961, 0.7319765760555235
371.37788484776274, 0.7443400167084379
371.54914822814493, 0.7543703007518798
374.0946468710051, 0.7615413533834587
378.1675573527898, 0.7684602130325816
381.07022992063713, 0.775991114149009
383.23692806250125, 0.7846647869674186
386.1330148497756, 0.7932330827067671
388.99474881241366, 0.804950796107917
392.3888351221068, 0.8131023581681478
394.54051603587476, 0.8248156448814344
396.9748724336527, 0.83202929197995
400.172960971765, 0.8411825017088176
405.44793440086937, 0.8557518796992483
404.5182551210824, 0.8460996240601505
407.6994603799441, 0.8680365686944636
410.76023686331075, 0.8784332153914198
414.3823925117993, 0.8892152255639099
412.84403721834815, 0.871936090225564
417.47662430148716, 0.8978352130325815
414.82485613207075, 0.8784931077694237
419.83962474679856, 0.9104887218045115
424.03248880662585, 0.9198308270676693
425.2514911876791, 0.9300563909774437
425.7444531074867, 0.9394689849624062
428.8328153276173, 0.9471334586466167
427.9152141660558, 0.9246005639097745
431.10161963127, 0.9380639097744362
434.11563311125377, 0.965670610349403
433.93952855715713, 0.9555398913951547
433.62931149388385, 0.9475563909774437
431.8111928441168, 0.9425281954887219
435.8178517933359, 0.9748846548188654
439.7626041900179, 0.9616893796992483
442.0239930980504, 0.9755462875939851
441.7078600320807, 0.9679393796992483
448.238213523036, 0.9865684431667405
448.06174948349934, 0.9760808270676693
447.7978578368492, 0.9686346548188655
449.4920034524265, 0.9960369674185465
452.30016078168836, 0.9839755639097746
453.7013205606685, 0.9750469924812031
454.1175883655554, 0.9683176691729325
458.210809558142, 0.9604010025062658
459.2148667776412, 0.9488956766917295
460.2468506328271, 0.9401159147869675
463.9525668775081, 0.9324843358395991
463.8961519178689, 0.9464755639097746
467.26359079764126, 0.9242842683632159
468.7127475246588, 0.9158916823308272
470.1611428938315, 0.905247493734336
470.5453418750341, 0.8977913533834587
470.3262976513606, 0.8903242481203009
473.14893265345074, 0.8826362781954888
488.18126791091356, 0.9067387218045114
488.52589837304794, 0.8988878446115289
489.1266452015689, 0.8907638414217363
490.00850295056745, 0.8833176691729324
490.97111988270444, 0.8765037593984963
492.0209779680618, 0.8688028665413534
492.5981793221976, 0.8585150375939851
493.23407078900425, 0.8481614191729324
494.2808206555875, 0.837374686716792
495.85487313166084, 0.8250939849624062
495.2187506521475, 0.8157738095238096
495.83802248368715, 0.8083646616541353
496.53612920925406, 0.8014450187969926
497.2300706061084, 0.7903900375939851
497.2198229508098, 0.7802161654135339
497.56513106774804, 0.7730380639097745
497.9099989851746, 0.7654229323308271
498.31181751720163, 0.7560150375939851
497.9696978226523, 0.7469141604010026
498.58898543195227, 0.7395206766917295
499.4424728555205, 0.7313074352548038
499.8808999987884, 0.7221334586466166
499.70935235575854, 0.7143209586466166
500.6716497882499, 0.7071898496240603
501.0167922387052, 0.6998472744360903
501.361811096705, 0.6923819966583125
501.07210827734133, 0.6847650375939851
501.61596330479404, 0.6754735396182765
501.863555049363, 0.665513392857143
503.08698821994557, 0.6551378446115289
504.0164876332654, 0.6446115288220552
503.77224001532846, 0.6354558270676692
504.11727596590197, 0.6280075187969926
505.3631352504954, 0.620452172096909
505.3681715115751, 0.6098966165413535
505.50030709832606, 0.6010808270676693
506.68336968335126, 0.5910099768652401
506.53812478037366, 0.5814262218045114
506.60077432198557, 0.573624686716792
506.8757175725374, 0.5665883458646617
507.22064307878895, 0.559030388471178
508.3218876605604, 0.5484998554077503
509.0106852041466, 0.5361842105263159
509.3031812130044, 0.5265742481203008
510.2821707269787, 0.5185150375939851
510.52000152981174, 0.5096334586466166
511.10980734218714, 0.5001926691729324
512.0887802895131, 0.4921170112781955
512.0814909642661, 0.4848801691729323
512.1441662762197, 0.47710421888053467
512.7714421655469, 0.4698637218045113
513.0371380708016, 0.4614243943191312
513.5465459390318, 0.4518867481203007
514.152404833599, 0.4408834586466165
515.4152337062051, 0.429235347985348
515.6293795118083, 0.4197239191729323
516.5245982626518, 0.4096334586466165
517.0194704030675, 0.39980615601503755
518.3651026855653, 0.39143170426065155
519.1061385177443, 0.378181029496819
519.720248240338, 0.36863839285714284
517.9749932597408, 0.38594924812030074
520.143493891188, 0.3610588972431077
521.112101112976, 0.3504699248120301
522.6703729600906, 0.33843130553656864
522.9321025754691, 0.3295895989974936
523.8064956270246, 0.3209193438140807
524.9513480139713, 0.3120742481203007
525.6485911175334, 0.30429720133667504
526.4091341458916, 0.29572795625427195
528.3326274363387, 0.2856751253132831
528.7922099265086, 0.27528195488721796
531.1638676288828, 0.2673637218045113
532.3034459480441, 0.2612370770676692
533.8809912257982, 0.25242402882205517
535.8120135558731, 0.24454299812030078
537.2150015828249, 0.23742951127819545
538.2653980842517, 0.23026315789473684
539.5497117150755, 0.22199639724310782
540.5991444583121, 0.2138732247284878
543.0356934590707, 0.20621240601503754
545.28268670277, 0.19702729835953536
545.0178778662282, 0.18867053998632954
548.0876476729513, 0.18179254955570745
551.6525152779209, 0.17432644110275697
553.3580406748135, 0.16423872180451127
553.4402526669464, 0.15835878759398492
556.6373794683063, 0.14643686421937196
556.9921006434297, 0.15546679197994984
561.6406074866863, 0.13717105263157892
563.1229533089372, 0.128843984962406
568.7363839901047, 0.11935796522556386
567.0719121282257, 0.1293703007518796
574.813451651389, 0.11517073934837097
581.1604659437676, 0.11648652882205512
585.3163642890465, 0.11246240601503754
587.8386900140235, 0.12355046269519954
592.8363635468609, 0.1313945922498554
593.8757918752697, 0.14026211361737684
596.8737921660459, 0.15197091994692602
597.5457977891951, 0.14384398496240602
602.9147171666073, 0.1541071428571429
602.7649546660771, 0.14542293233082704
607.2700351601079, 0.1380668468045112
606.9302739120162, 0.15075187969924808
608.669771982333, 0.1277255639097744
610.7786326799405, 0.1214024644945697
612.533735612576, 0.1138686560150376
613.4077919762897, 0.10663181390977439
615.6918219703166, 0.09921679197994993
616.3102733583221, 0.0909931077694236
618.3420439192262, 0.0803571428571428
621.3050642686126, 0.07204374572795613
624.1762376138272, 0.06421130952380938
625.6747001552365, 0.05466269841269833
627.7680360626589, 0.04848214285714281
631.791815387835, 0.041623590225563833
633.5720950240227, 0.032570061517429805
638.7452187075262, 0.026629072681704113
643.9426361256965, 0.01935235816814762
649.6276346019663, 0.01569157268170418
652.7956747542205, 0.010921835839599048
658.6128968380192, 0.01125992063492065
664.5354699197633, 0.011190476190476195
669.6085752253318, 0.007769423558897426
675.5334823637459, 0.010017230576440994
681.7138784030515, 0.010620300751879697
688.7677323577648, 0.010519086176981052
694.5713591703204, 0.010821324143692745
700.920343053107, 0.014092522974101906
707.2694926023764, 0.017528195488721754
713.6175561158134, 0.01988565162907252
719.966650442922, 0.02326649958228899
726.3169596575713, 0.027853487886382533
732.8704312024017, 0.03414003759398487
730.0755824139319, 0.02608082706766912
739.021204342107, 0.04062761069340004
744.9491855141482, 0.04592731829573937
750.0337328514679, 0.05386591478696734
754.1018532052333, 0.06269580200501246
753.8408811614049, 0.053602756892230485
759.4477843859247, 0.07013627819548873
762.5039404956287, 0.07928806390977439
763.041003622069, 0.08748433583959891
766.1792307101734, 0.09686618890977439
763.0238847521707, 0.07048872180451127
768.8100797692491, 0.10733082706766917
766.9192007643001, 0.08775845864661647
769.9811812342098, 0.11769266917293231
771.7336043023097, 0.1265892002734107
773.5251186361352, 0.1361137218045112
774.5907517206597, 0.14407424812030067
777.2145739266327, 0.1590049342105263
775.7957765838853, 0.15042293233082704
779.2004547402958, 0.17058740601503763
781.0240037007054, 0.1785068139097744
782.9534963769215, 0.18660714285714286
787.0568503340251, 0.1940533151059466
791.1568935432863, 0.2009398496240602
797.0010311713006, 0.20299968671679203
803.344529652765, 0.20082497911445274
809.3807214103199, 0.1998061560150376
814.5247126428078, 0.19384398496240596
817.6427325616621, 0.18608082706766915
821.9722530624845, 0.18331766917293224
824.1190743939069, 0.1757929981203007
825.1700211447233, 0.16917293233082698
828.1009373378049, 0.1623198621553884
830.9131811069781, 0.15431547619047603
833.7252315985877, 0.1461192042606515
836.6909271334291, 0.13789762868710242
838.9955149928276, 0.1284565580618212
841.1598187400411, 0.118843984962406
842.8383042113746, 0.11024436090225553
844.79345270913, 0.10131578947368414
847.924771338018, 0.09085815500289185
849.2094058844398, 0.07991854636591467
851.002984857726, 0.07169486215538834
852.9139799507584, 0.06337523496240594
855.1374036231293, 0.0541235902255639
857.4087518478914, 0.04578477443609019
859.7630879361479, 0.03816964285714275
861.8863825352519, 0.030267429938482415
866.6238221586402, 0.024506578947368407
871.9557269104471, 0.01802161654135337
877.4735141893818, 0.016080827067669112
882.5470170945091, 0.013054511278195458
888.424735515827, 0.012203359962405957
894.5049853541364, 0.011175399436090139
900.0555580300345, 0.009283952067669077
905.5632161840945, 0.008536967418546038
908.5246903129741, 0.005506664388243099
915.0007437349327, 0.0076597744360900055
920.8013518132561, 0.00529135338345843
927.2390188050708, 0.003273809523809401
933.8946559495284, 0.004740366541353236
939.7657567257363, 0.004525099513489339
945.5708296634264, 0.003095629699247926
951.9171398732531, 0.003712406015037528
957.827329880985, 0.0021182764603815407
964.7743596887419, 0.0036543564794337957
970.4127832015731, 0.004648640832851214
977.8446835725028, 0.0061162521688835625
983.647885599205, 0.00599676274018357
990.4983314071847, 0.0071193609022555115
996.3424295907982, 0.00914003759398474
1002.6912846218759, 0.012283312447786132
1008.8761222553828, 0.017295997346306935
1014.8568771893592, 0.025577731092436884
1020.540054747566, 0.032542293233082664
1024.5785255342225, 0.04193609022556377
1028.4365003211092, 0.04905653556969336
1033.7167394047406, 0.05553129146395397
1036.781151185322, 0.06579374572795615
1041.707648807315, 0.07272967575187961
1041.5234898032754, 0.06489661654135337
1047.0401615945586, 0.08184837092731823
1052.4319029105425, 0.08851914943609018
1058.473840073761, 0.09320436507936503
1064.6439041550293, 0.09384398496240598
1071.1651627726314, 0.09314954051796143
1077.006197441125, 0.09212875939849619
1081.534572417648, 0.08789943609022555
1087.696395248799, 0.08717532467532452
1093.1792736762632, 0.08405296329057932
1099.1900239887295, 0.08093763821318001
1105.1605076007672, 0.07902200353825739
1111.3418250922095, 0.0805398913951545
1117.284168759429, 0.08009868421052624
1124.0338288643986, 0.08116123642439421
1130.8297230662274, 0.078125
1136.2975737338918, 0.07660714285714265
1141.3694862407833, 0.07200187969924798
1146.7878783633137, 0.0713815789473683
1151.3163243397578, 0.06722274436090203
1156.8752284619688, 0.06610275689223033
1162.3994712115202, 0.06432095864661636
1167.9887947838245, 0.06510594668489389
1174.7830316036534, 0.06496971595655787
1181.4344465537208, 0.06224447838345848
1187.4706176029656, 0.061205096073516985
1193.815220527649, 0.060126879699247904
1200.160210007459, 0.05943243525480346
1206.380097471365, 0.058066121185315955
1212.7383725868476, 0.05472455176402524
1217.496239213061, 0.050642230576440905
1222.9119349163605, 0.04734492481203001
1227.4390555609414, 0.041870300751879586
1232.7752913079435, 0.03968515037593967
1237.3023646192437, 0.03416353383458626
1242.6109577302445, 0.029534774436090094
1249.2294757214352, 0.025399436090225436
1253.6356977001328, 0.019896616541353107
1259.869871028801, 0.014183897243107646
1264.0712282569843, 0.010291353383458546
1269.9121130367555, 0.009121762740183614
1276.2558324068634, 0.007166353383458501
1282.6008587014476, 0.006508458646616422
1288.9466581062854, 0.006618107769423398
1295.2931753992154, 0.007440476190476053
1301.6382385085735, 0.006819131161236225
1306.0682970015694, 0.0049812030075184754
483.7959625090124, 0.9030075187969926
482.17981496852536, 0.8984962406015039
478.9520638825106, 0.8939849624060151
477.33591634202355, 0.8894736842105264
475.7197688015366, 0.8849624060150377
490.23480336619156, 0.8954887218045113
490.22723004125953, 0.8879699248120302
488.6307731455957, 0.9030075187969926
