 1440.51, 7716.00
 1438.80,  630.00
 1437.09,  659.00
 1435.38,  651.00
 1433.66,  651.00
 1431.95,  657.00
 1430.24,  656.00
 1428.52,  661.00
 1426.81,  663.00
 1425.09,  654.00
 1423.38,  649.00
 1421.66,  647.00
 1419.95,  654.00
 1418.23,  647.00
 1416.52,  648.00
 1414.80,  663.00
 1413.08,  648.00
 1411.37,  643.00
 1409.65,  657.00
 1407.93,  657.00
 1406.21,  642.00
 1404.49,  652.00
 1402.77,  663.00
 1401.05,  662.00
 1399.33,  651.00
 1397.61,  637.00
 1395.89,  663.00
 1394.17,  654.00
 1392.45,  652.00
 1390.73,  664.00
 1389.01,  663.00
 1387.28,  650.00
 1385.56,  654.00
 1383.84,  644.00
 1382.11,  650.00
 1380.39,  652.00
 1378.66,  650.00
 1376.94,  654.00
 1375.21,  665.00
 1373.49,  643.00
 1371.76,  645.00
 1370.04,  655.00
 1368.31,  648.00
 1366.58,  659.00
 1364.85,  653.00
 1363.13,  655.00
 1361.40,  645.00
 1359.67,  646.00
 1357.94,  638.00
 1356.21,  644.00
 1354.48,  644.00
 1352.75,  647.00
 1351.02,  644.00
 1349.29,  659.00
 1347.56,  654.00
 1345.83,  655.00
 1344.09,  667.00
 1342.36,  663.00
 1340.63,  652.00
 1338.90,  653.00
 1337.16,  647.00
 1335.43,  653.00
 1333.69,  651.00
 1331.96,  657.00
 1330.22,  658.00
 1328.49,  642.00
 1326.75,  654.00
 1325.02,  661.00
 1323.28,  630.00
 1321.54,  652.00
 1319.80,  647.00
 1318.07,  648.00
 1316.33,  647.00
 1314.59,  654.00
 1312.85,  643.00
 1311.11,  668.00
 1309.37,  661.00
 1307.63,  665.00
 1305.89,  656.00
 1304.15,  658.00
 1302.41,  654.00
 1300.67,  663.00
 1298.93,  665.00
 1297.18,  655.00
 1295.44,  674.00
 1293.70,  651.00
 1291.95,  657.00
 1290.21,  677.00
 1288.46,  665.00
 1286.72,  668.00
 1284.98,  665.00
 1283.23,  674.00
 1281.48,  657.00
 1279.74,  675.00
 1277.99,  678.00
 1276.24,  674.00
 1274.50,  689.00
 1272.75,  663.00
 1271.00,  681.00
 1269.25,  678.00
 1267.50,  673.00
 1265.75,  671.00
 1264.00,  680.00
 1262.25,  691.00
 1260.50,  675.00
 1258.75,  685.00
 1257.00,  703.00
 1255.25,  687.00
 1253.50,  706.00
 1251.75,  667.00
 1249.99,  685.00
 1248.24,  691.00
 1246.49,  688.00
 1244.73,  717.00
 1242.98,  711.00
 1241.22,  691.00
 1239.47,  697.00
 1237.71,  703.00
 1235.96,  699.00
 1234.20,  721.00
 1232.44,  733.00
 1230.69,  722.00
 1228.93,  714.00
 1227.17,  718.00
 1225.41,  721.00
 1223.66,  739.00
 1221.90,  743.00
 1220.14,  724.00
 1218.38,  746.00
 1216.62,  746.00
 1214.86,  752.00
 1213.10,  752.00
 1211.33,  758.00
 1209.57,  781.00
 1207.81,  781.00
 1206.05,  790.00
 1204.29,  821.00
 1202.52,  804.00
 1200.76,  815.00
 1199.00,  834.00
 1197.23,  823.00
 1195.47,  841.00
 1193.70,  879.00
 1191.94,  869.00
 1190.17,  894.00
 1188.40,  897.00
 1186.64,  925.00
 1184.87,  958.00
 1183.10,  942.00
 1181.33,  995.00
 1179.57, 1020.00
 1177.80, 1057.00
 1176.03, 1079.00
 1174.26, 1121.00
 1172.49, 1160.00
 1170.72, 1201.00
 1168.95, 1235.00
 1167.18, 1264.00
 1165.41, 1331.00
 1163.64, 1379.00
 1161.86, 1463.00
 1160.09, 1519.00
 1158.32, 1589.00
 1156.54, 1687.00
 1154.77, 1700.00
 1153.00, 1814.00
 1151.22, 1875.00
 1149.45, 1960.00
 1147.67, 2050.00
 1145.90, 2158.00
 1144.12, 2269.00
 1142.35, 2396.00
 1140.57, 2517.00
 1138.79, 2643.00
 1137.01, 2739.00
 1135.24, 2901.00
 1133.46, 3042.00
 1131.68, 3161.00
 1129.90, 3325.00
 1128.12, 3514.00
 1126.34, 3621.00
 1124.56, 3801.00
 1122.78, 3965.00
 1121.00, 4158.00
 1119.22, 4322.00
 1117.44, 4516.00
 1115.65, 4675.00
 1113.87, 4871.00
 1112.09, 5063.00
 1110.31, 5203.00
 1108.52, 5455.00
 1106.74, 5623.00
 1104.95, 5819.00
 1103.17, 6002.00
 1101.38, 6198.00
 1099.60, 6349.00
 1097.81, 6558.00
 1096.02, 6673.00
 1094.24, 6856.00
 1092.45, 6965.00
 1090.66, 7100.00
 1088.87, 7228.00
 1087.09, 7348.00
 1085.30, 7407.00
 1083.51, 7481.00
 1081.72, 7599.00
 1079.93, 7649.00
 1078.14, 7647.00
 1076.35, 7716.00
 1074.56, 7663.00
 1072.76, 7695.00
 1070.97, 7613.00
 1069.18, 7579.00
 1067.39, 7595.00
 1065.59, 7505.00
 1063.80, 7409.00
 1062.01, 7323.00
 1060.21, 7259.00
 1058.42, 7188.00
 1056.62, 7037.00
 1054.83, 6961.00
 1053.03, 6825.00
 1051.24, 6719.00
 1049.44, 6435.00
 1047.64, 6462.00
 1045.84, 6354.00
 1044.05, 6215.00
 1042.25, 6056.00
 1040.45, 5972.00
 1038.65, 5812.00
 1036.85, 5682.00
 1035.05, 5555.00
 1033.25, 5417.00
 1031.45, 5287.00
 1029.65, 5183.00
 1027.85, 5070.00
 1026.05, 4901.00
 1024.24, 4791.00
 1022.44, 4721.00
 1020.64, 4616.00
 1018.84, 4463.00
 1017.03, 4391.00
 1015.23, 4282.00
 1013.42, 4183.00
 1011.62, 4078.00
 1009.81, 4027.00
 1008.01, 3946.00
 1006.20, 3834.00
 1004.39, 3768.00
 1002.59, 3679.00
 1000.78, 3650.00
  998.97, 3583.00
  997.16, 3508.00
  995.36, 3421.00
  993.55, 3403.00
  991.74, 3348.00
  989.93, 3285.00
  988.12, 3235.00
  986.31, 3208.00
  984.50, 3137.00
  982.69, 3099.00
  980.87, 2974.00
  979.06, 2981.00
  977.25, 2981.00
  975.44, 2906.00
  973.62, 2856.00
  971.81, 2824.00
  970.00, 2817.00
  968.18, 2719.00
  966.37, 2694.00
  964.55, 2687.00
  962.74, 2637.00
  960.92, 2627.00
  959.10, 2632.00
  957.29, 2615.00
  955.47, 2608.00
  953.65, 2580.00
  951.83, 2630.00
  950.01, 2603.00
  948.20, 2621.00
  946.38, 2627.00
  944.56, 2616.00
  942.74, 2599.00
  940.92, 2605.00
  939.10, 2595.00
  937.27, 2609.00
  935.45, 2557.00
  933.63, 2559.00
  931.81, 2520.00
  929.99, 2457.00
  928.16, 2413.00
  926.34, 2353.00
  924.52, 2313.00
  922.69, 2223.00
  920.87, 2170.00
  919.04, 2118.00
  917.22, 2043.00
  915.39, 1942.00
  913.56, 1884.00
  911.74, 1819.00
  909.91, 1762.00
  908.08, 1692.00
  906.25, 1631.00
  904.43, 1603.00
  902.60, 1556.00
  900.77, 1515.00
  898.94, 1431.00
  897.11, 1406.00
  895.28, 1343.00
  893.45, 1334.00
  891.62, 1313.00
  889.78, 1250.00
  887.95, 1244.00
  886.12, 1224.00
  884.29, 1168.00
  882.45, 1155.00
  880.62, 1151.00
  878.79, 1102.00
  876.95, 1084.00
  875.12, 1058.00
  873.28, 1048.00
  871.45, 1033.00
  869.61, 1030.00
  867.77, 1020.00
  865.94, 1001.00
  864.10, 1012.00
  862.26,  977.00
  860.42,  952.80
  858.59,  930.56
  856.75,  931.80
  854.91,  911.72
  853.07,  911.80
  851.23,  892.36
  849.39,  891.72
  847.55,  876.32
  845.71,  862.76
  843.87,  859.00
  842.02,  830.80
  840.18,  842.76
  838.34,  858.52
  836.49,  819.80
  834.65,  830.00
  832.81,  812.72
  830.96,  811.40
  829.12,  818.32
  827.27,  805.36
  825.43,  815.00
  823.58,  827.52
  821.73,  806.44
  819.89,  812.16
  818.04,  826.44
  818.58,  835.00
  816.74,  855.00
  814.90,  854.00
  813.06,  898.00
  811.22,  906.00
  809.38,  916.00
  807.54,  951.00
  805.70,  981.00
  803.86,  997.00
  802.02, 1043.00
  800.18, 1057.00
  798.34, 1063.00
  796.50, 1095.00
  794.65, 1144.00
  792.81, 1155.00
  790.96, 1191.00
  789.12, 1206.00
  787.28, 1229.00
  785.43, 1270.00
  783.59, 1275.00
  781.74, 1294.00
  779.89, 1323.00
  778.05, 1340.00
  776.20, 1360.00
  774.35, 1376.00
  772.50, 1365.00
  770.66, 1386.00
  768.81, 1410.00
  766.96, 1424.00
  765.11, 1434.00
  763.26, 1450.00
  761.41, 1450.00
  759.56, 1467.00
  757.71, 1475.00
  755.85, 1471.00
  754.00, 1463.00
  752.15, 1485.00
  750.30, 1505.00
  748.44, 1497.00
  746.59, 1500.00
  744.74, 1495.00
  742.88, 1493.00
  741.03, 1492.00
  739.17, 1502.00
  737.31, 1496.00
  735.46, 1505.00
  733.60, 1498.00
  731.74, 1530.00
  729.89, 1503.00
  728.03, 1558.00
  726.17, 1494.00
  724.31, 1535.00
  722.45, 1540.00
  720.59, 1524.00
  718.73, 1544.00
  716.87, 1554.00
  715.01, 1571.00
  713.15, 1572.00
  711.29, 1577.00
  709.43, 1609.00
  707.56, 1612.00
  705.70, 1614.00
  703.84, 1609.00
  701.97, 1668.00
  700.11, 1672.00
  698.25, 1700.00
  696.38, 1694.00
  694.51, 1713.00
  692.65, 1758.00
  690.78, 1774.00
  688.92, 1828.00
  687.05, 1843.00
  685.18, 1908.00
  683.31, 1904.00
  681.45, 1970.00
  679.58, 1971.00
  677.71, 2017.00
  675.84, 2061.00
  673.97, 2161.00
  672.10, 2163.00
  670.23, 2219.00
  668.36, 2265.00
  666.48, 2331.00
  664.61, 2376.00
  662.74, 2438.00
  660.87, 2486.00
  658.99, 2538.00
  657.12, 2615.00
  655.24, 2662.00
  653.37, 2735.00
  651.49, 2771.00
  649.62, 2840.00
  647.74, 2902.00
  645.87, 2964.00
  643.99, 3036.00
  642.11, 3157.00
  640.24, 3227.00
  638.36, 3394.00
  636.48, 3288.00
  634.60, 3358.00
  632.72, 3416.00
  630.84, 3491.00
  628.96, 3545.00
  627.08, 3614.00
  625.20, 3669.00
  623.32, 3761.00
  621.44, 3790.00
  619.55, 3894.00
  617.67, 3939.00
  615.79, 3967.00
  613.91, 4050.00
  612.02, 4081.00
  610.14, 4103.00
  608.25, 4182.00
  606.37, 4221.00
  604.48, 4280.00
  602.60, 4375.00
  600.71, 4411.00
  598.82, 4433.00
  596.93, 4519.00
  595.05, 4548.00
  593.16, 4557.00
  591.27, 4599.00
  589.38, 4643.00
  587.49, 4659.00
  585.60, 4706.00
  583.71, 4707.00
  581.82, 4717.00
  579.93, 4800.00
  578.04, 4753.00
  576.15, 4824.00
  574.25, 4829.00
  572.36, 4767.00
  570.47, 4803.00
  568.57, 4773.00
  566.68, 4823.00
  564.79, 4767.00
  562.89, 4765.00
  561.00, 4787.00
  559.10, 4729.00
  557.20, 4717.00
  555.31, 4667.00
  553.41, 4625.00
  551.51, 4607.00
  549.62, 4587.00
  547.72, 4571.00
  545.82, 4543.00
  543.92, 4553.00
  542.02, 4590.00
  540.12, 4593.00
  538.22, 4623.00
  536.32, 4649.00
  534.42, 4712.00
  532.51, 4761.00
  530.61, 4790.00
  528.71, 4857.00
  526.81, 4852.00
  524.90, 4829.00
  523.00, 4889.00
  521.10, 4899.00
  519.19, 4947.00
  517.29, 4929.00
  515.38, 4958.00
  513.47, 4947.00
  511.57, 4974.00
  509.66, 4970.00
  507.75, 4986.00
  505.85, 4951.00
  503.94, 4945.00
  502.03, 4943.00
  500.12, 4892.00
  498.21, 4893.00
  496.30, 4865.00
  494.39, 4837.00
  492.48, 4794.00
  490.57, 4771.00
  488.66, 4755.00
  486.74, 4721.00
  484.83, 4702.00
  482.92, 4645.00
  481.01, 4565.00
  479.09, 4580.00
  477.18, 4565.00
  475.26, 4489.00
  473.35, 4464.00
  471.43, 4376.00
  469.52, 4371.00
  467.60, 4326.00
  465.69, 4311.00
  463.77, 4262.00
  461.85, 4210.00
  459.93, 4209.00
  458.01, 4144.00
  456.10, 4103.00
  454.18, 4083.00
  452.26, 4020.00
  450.34, 4020.00
  448.42, 3969.00
  446.49, 3814.00
  444.57, 3933.00
  442.65, 3923.00
  440.73, 3886.00
  438.81, 3876.00
  436.88, 3813.00
  434.96, 3751.00
  433.04, 3751.00
  431.11, 3741.00
  429.19, 3754.00
  427.26, 3730.00
  425.34, 3699.00
  423.41, 3677.00
  421.48, 3672.00
  419.56, 3622.00
  417.63, 3583.00
  415.70, 3604.00
  413.77, 3603.00
  411.84, 3554.00
  409.91, 3513.00
  407.98, 3540.00
  406.05, 3473.00
  404.12, 3494.00
  402.19, 3485.00
  400.26, 3493.00
  398.33, 3450.00
  396.40, 3427.00
  394.46, 3411.00
  392.53, 3418.00
  390.60, 3410.00
  388.66, 3390.00
  386.73, 3370.00
  384.79, 3373.00
  382.86, 3353.00
  380.92, 3327.00
  378.99, 3339.00
  377.05, 3318.00
  375.11, 3306.00
  373.18, 3199.00
  371.24, 3326.00
  369.30, 3295.00
  367.36, 3302.00
  365.42, 3253.00
  363.48, 3246.00
  361.54, 3226.00
  359.60, 3188.00
  357.66, 3211.00
  355.72, 3187.00
  353.78, 3208.00
  351.84, 3195.00
  349.89, 3166.00
  347.95, 3169.00
  346.01, 3198.00
  344.06, 3171.00
  342.12, 3141.00
  340.17, 3139.00
  338.23, 3130.00
  336.28, 3156.00
  334.34, 3129.00
  332.39, 3106.00
  330.44, 3096.00
  328.50, 3108.00
  326.55, 3116.00
  324.60, 3114.00
  322.65, 3089.00
  320.70, 3123.00
  318.75, 3085.00
  316.80, 3113.00
  314.85, 3076.00
  312.90, 3085.00
  310.95, 3075.00
  309.00, 3063.00
  307.05, 3055.00
  305.09, 3041.00
  303.14, 3029.00
  301.19, 3017.00
  299.23, 3013.00
  297.28, 2985.00
  295.32, 3014.00
  293.37, 2961.00
  291.41, 2993.00
  289.46, 2970.00
  287.50, 2975.00
  285.54, 2950.00
  283.59, 2949.00
  281.63, 2928.00
  279.67, 2960.00
  277.71, 2961.00
  275.75, 2940.00
  273.79, 2947.00
  271.83, 2939.00
  269.87, 2949.00
  267.91, 2917.00
  265.95, 2933.00
  263.99, 2936.00
  262.02, 2919.00
  260.06, 2944.00
  258.10, 2940.00
  256.14, 2929.00
  254.17, 2938.00
  252.21, 2983.00
  250.24, 2927.00
  248.28, 2972.00
  246.31, 2949.00
  244.34, 2967.00
  242.38, 2971.00
  240.41, 2991.00
  238.44, 3005.00
  236.48, 2980.00
  234.51, 2955.00
  232.54, 2993.00
  230.57, 3006.00
  228.60, 2991.00
  226.63, 3033.00
  224.66, 2943.00
  222.69, 3059.00
  220.72, 3003.00
  218.74, 3026.00
  216.77, 3076.00
  214.80, 3049.00
  212.82, 3088.00
  210.85, 3135.00
  208.88, 3099.00
  206.90, 3140.00
  204.93, 3112.00
  202.95, 3143.00
  200.98, 3171.00
  199.00, 3175.00
