 1440.51, 8930.00
 1438.80,  752.00
 1437.09,  768.00
 1435.38,  770.00
 1433.66,  767.00
 1431.95,  773.00
 1430.24,  775.00
 1428.52,  773.00
 1426.81,  784.00
 1425.09,  771.00
 1423.38,  787.00
 1421.66,  760.00
 1419.95,  779.00
 1418.23,  785.00
 1416.52,  769.00
 1414.80,  783.00
 1413.08,  766.00
 1411.37,  767.00
 1409.65,  782.00
 1407.93,  771.00
 1406.21,  777.00
 1404.49,  782.00
 1402.77,  769.00
 1401.05,  781.00
 1399.33,  786.00
 1397.61,  774.00
 1395.89,  788.00
 1394.17,  765.00
 1392.45,  764.00
 1390.73,  787.00
 1389.01,  775.00
 1387.28,  772.00
 1385.56,  778.00
 1383.84,  767.00
 1382.11,  756.00
 1380.39,  763.00
 1378.66,  752.00
 1376.94,  774.00
 1375.21,  757.00
 1373.49,  775.00
 1371.76,  780.00
 1370.04,  783.00
 1368.31,  769.00
 1366.58,  783.00
 1364.85,  774.00
 1363.13,  779.00
 1361.40,  780.00
 1359.67,  767.00
 1357.94,  778.00
 1356.21,  785.00
 1354.48,  767.00
 1352.75,  770.00
 1351.02,  781.00
 1349.29,  781.00
 1347.56,  773.00
 1345.83,  786.00
 1344.09,  773.00
 1342.36,  783.00
 1340.63,  786.00
 1338.90,  767.00
 1337.16,  785.00
 1335.43,  790.00
 1333.69,  796.00
 1331.96,  795.00
 1330.22,  773.00
 1328.49,  777.00
 1326.75,  776.00
 1325.02,  792.00
 1323.28,  765.00
 1321.54,  801.00
 1319.80,  786.00
 1318.07,  783.00
 1316.33,  788.00
 1314.59,  791.00
 1312.85,  775.00
 1311.11,  789.00
 1309.37,  791.00
 1307.63,  806.00
 1305.89,  807.00
 1304.15,  799.00
 1302.41,  790.00
 1300.67,  796.00
 1298.93,  809.00
 1297.18,  818.00
 1295.44,  803.00
 1293.70,  809.00
 1291.95,  820.00
 1290.21,  818.00
 1288.46,  821.00
 1286.72,  825.00
 1284.98,  819.00
 1283.23,  799.00
 1281.48,  797.00
 1279.74,  820.00
 1277.99,  829.00
 1276.24,  849.00
 1274.50,  837.00
 1272.75,  831.00
 1271.00,  843.00
 1269.25,  839.00
 1267.50,  829.00
 1265.75,  836.00
 1264.00,  858.00
 1262.25,  887.00
 1260.50,  859.00
 1258.75,  870.00
 1257.00,  875.00
 1255.25,  890.00
 1253.50,  883.00
 1251.75,  878.00
 1249.99,  898.00
 1248.24,  901.00
 1246.49,  909.00
 1244.73,  927.00
 1242.98,  944.00
 1241.22,  955.00
 1239.47,  966.00
 1237.71,  974.00
 1235.96, 1019.00
 1234.20, 1029.00
 1232.44, 1053.00
 1230.69, 1084.00
 1228.93, 1095.00
 1227.17, 1125.00
 1225.41, 1175.00
 1223.66, 1181.00
 1221.90, 1251.00
 1220.14, 1291.00
 1218.38, 1350.00
 1216.62, 1414.00
 1214.86, 1455.00
 1213.10, 1510.00
 1211.33, 1589.00
 1209.57, 1652.00
 1207.81, 1738.00
 1206.05, 1789.00
 1204.29, 1883.00
 1202.52, 1982.00
 1200.76, 2086.00
 1199.00, 2166.00
 1197.23, 2278.00
 1195.47, 2402.00
 1193.70, 2510.00
 1191.94, 2610.00
 1190.17, 2719.00
 1188.40, 2855.00
 1186.64, 2966.00
 1184.87, 3092.00
 1183.10, 3219.00
 1181.33, 3370.00
 1179.57, 3487.00
 1177.80, 3623.00
 1176.03, 3755.00
 1174.26, 3907.00
 1172.49, 4043.00
 1170.72, 4181.00
 1168.95, 4325.00
 1167.18, 4405.00
 1165.41, 4591.00
 1163.64, 4709.00
 1161.86, 4799.00
 1160.09, 4951.00
 1158.32, 5050.00
 1156.54, 5167.00
 1154.77, 5259.00
 1153.00, 5415.00
 1151.22, 5468.00
 1149.45, 5578.00
 1147.67, 5640.00
 1145.90, 5749.00
 1144.12, 5791.00
 1142.35, 5956.00
 1140.57, 6023.00
 1138.79, 6068.00
 1137.01, 6183.00
 1135.24, 6245.00
 1133.46, 6349.00
 1131.68, 6420.00
 1129.90, 6546.00
 1128.12, 6585.00
 1126.34, 6701.00
 1124.56, 6800.00
 1122.78, 6938.00
 1121.00, 7080.00
 1119.22, 7221.00
 1117.44, 7373.00
 1115.65, 7482.00
 1113.87, 7663.00
 1112.09, 7791.00
 1110.31, 7941.00
 1108.52, 8119.00
 1106.74, 8250.00
 1104.95, 8393.00
 1103.17, 8517.00
 1101.38, 8618.00
 1099.60, 8770.00
 1097.81, 8930.00
 1096.02, 8885.00
 1094.24, 8928.00
 1092.45, 8902.00
 1090.66, 8863.00
 1088.87, 8860.00
 1087.09, 8731.00
 1085.30, 8507.00
 1083.51, 8341.00
 1081.72, 8182.00
 1079.93, 7950.00
 1078.14, 7694.00
 1076.35, 7464.00
 1074.56, 7205.00
 1072.76, 6871.00
 1070.97, 6637.00
 1069.18, 6362.00
 1067.39, 6144.00
 1065.59, 5869.00
 1063.80, 5547.00
 1062.01, 5342.00
 1060.21, 5158.00
 1058.42, 4884.00
 1056.62, 4671.00
 1054.83, 4421.00
 1053.03, 4279.00
 1051.24, 4078.00
 1049.44, 3699.00
 1047.64, 3657.00
 1045.84, 3522.00
 1044.05, 3332.00
 1042.25, 3202.00
 1040.45, 3061.00
 1038.65, 2883.00
 1036.85, 2792.00
 1035.05, 2672.00
 1033.25, 2589.00
 1031.45, 2489.00
 1029.65, 2389.00
 1027.85, 2299.00
 1026.05, 2247.00
 1024.24, 2186.00
 1022.44, 2100.00
 1020.64, 2054.00
 1018.84, 1992.00
 1017.03, 1982.00
 1015.23, 1927.00
 1013.42, 1865.00
 1011.62, 1814.00
 1009.81, 1811.00
 1008.01, 1776.00
 1006.20, 1727.00
 1004.39, 1740.00
 1002.59, 1684.00
 1000.78, 1688.00
  998.97, 1661.00
  997.16, 1651.00
  995.36, 1621.00
  993.55, 1632.00
  991.74, 1603.00
  989.93, 1583.00
  988.12, 1577.00
  986.31, 1555.00
  984.50, 1565.00
  982.69, 1565.00
  980.87, 1446.00
  979.06, 1548.00
  977.25, 1563.00
  975.44, 1521.00
  973.62, 1521.00
  971.81, 1502.00
  970.00, 1490.00
  968.18, 1456.00
  966.37, 1459.00
  964.55, 1426.00
  962.74, 1422.00
  960.92, 1405.00
  959.10, 1407.00
  957.29, 1377.00
  955.47, 1383.00
  953.65, 1379.00
  951.83, 1365.00
  950.01, 1357.00
  948.20, 1366.00
  946.38, 1367.00
  944.56, 1366.00
  942.74, 1355.00
  940.92, 1329.00
  939.10, 1343.00
  937.27, 1310.00
  935.45, 1275.00
  933.63, 1267.00
  931.81, 1256.00
  929.99, 1259.00
  928.16, 1247.00
  926.34, 1237.00
  924.52, 1219.00
  922.69, 1206.00
  920.87, 1188.00
  919.04, 1183.00
  917.22, 1172.00
  915.39, 1173.00
  913.56, 1159.00
  911.74, 1179.00
  909.91, 1130.00
  908.08, 1131.00
  906.25, 1123.00
  904.43, 1122.00
  902.60, 1125.00
  900.77, 1114.00
  898.94, 1113.00
  897.11, 1103.00
  895.28, 1112.00
  893.45, 1099.00
  891.62, 1108.00
  889.78, 1104.00
  887.95, 1109.00
  886.12, 1117.00
  884.29, 1110.00
  882.45, 1096.00
  880.62, 1097.00
  878.79, 1114.00
  876.95, 1112.00
  875.12, 1079.00
  873.28, 1078.00
  871.45, 1107.00
  869.61, 1080.00
  867.77, 1086.00
  865.94, 1081.00
  864.10, 1101.00
  862.26, 1080.00
  860.42, 1078.20
  858.59, 1068.12
  856.75, 1056.68
  854.91, 1055.28
  853.07, 1068.60
  851.23, 1058.28
  849.39, 1034.88
  847.55, 1045.52
  845.71, 1029.04
  843.87, 1036.80
  842.02, 1029.56
  840.18, 1053.00
  838.34, 1067.28
  836.49, 1059.96
  834.65, 1073.40
  832.81, 1073.92
  830.96, 1095.88
  829.12, 1121.60
  827.27, 1142.64
  825.43, 1165.20
  823.58, 1171.72
  821.73, 1232.60
  819.89, 1238.44
  818.04, 1263.80
  818.58, 1274.00
  816.74, 1313.00
  814.90, 1320.00
  813.06, 1347.00
  811.22, 1391.00
  809.38, 1401.00
  807.54, 1442.00
  805.70, 1460.00
  803.86, 1480.00
  802.02, 1509.00
  800.18, 1513.00
  798.34, 1519.00
  796.50, 1549.00
  794.65, 1567.00
  792.81, 1564.00
  790.96, 1623.00
  789.12, 1623.00
  787.28, 1633.00
  785.43, 1642.00
  783.59, 1628.00
  781.74, 1642.00
  779.89, 1634.00
  778.05, 1631.00
  776.20, 1641.00
  774.35, 1654.00
  772.50, 1638.00
  770.66, 1640.00
  768.81, 1636.00
  766.96, 1638.00
  765.11, 1650.00
  763.26, 1628.00
  761.41, 1619.00
  759.56, 1595.00
  757.71, 1565.00
  755.85, 1576.00
  754.00, 1563.00
  752.15, 1562.00
  750.30, 1511.00
  748.44, 1514.00
  746.59, 1457.00
  744.74, 1470.00
  742.88, 1431.00
  741.03, 1426.00
  739.17, 1411.00
  737.31, 1418.00
  735.46, 1418.00
  733.60, 1423.00
  731.74, 1409.00
  729.89, 1384.00
  728.03, 1404.00
  726.17, 1419.00
  724.31, 1424.00
  722.45, 1438.00
  720.59, 1426.00
  718.73, 1431.00
  716.87, 1462.00
  715.01, 1442.00
  713.15, 1499.00
  711.29, 1484.00
  709.43, 1505.00
  707.56, 1525.00
  705.70, 1497.00
  703.84, 1543.00
  701.97, 1559.00
  700.11, 1571.00
  698.25, 1575.00
  696.38, 1566.00
  694.51, 1603.00
  692.65, 1615.00
  690.78, 1660.00
  688.92, 1673.00
  687.05, 1707.00
  685.18, 1705.00
  683.31, 1743.00
  681.45, 1747.00
  679.58, 1767.00
  677.71, 1778.00
  675.84, 1841.00
  673.97, 1871.00
  672.10, 1839.00
  670.23, 1881.00
  668.36, 1907.00
  666.48, 1916.00
  664.61, 1963.00
  662.74, 1973.00
  660.87, 2055.00
  658.99, 2038.00
  657.12, 2075.00
  655.24, 2098.00
  653.37, 2147.00
  651.49, 2147.00
  649.62, 2190.00
  647.74, 2221.00
  645.87, 2261.00
  643.99, 2288.00
  642.11, 2328.00
  640.24, 2380.00
  638.36, 2420.00
  636.48, 2467.00
  634.60, 2516.00
  632.72, 2547.00
  630.84, 2606.00
  628.96, 2660.00
  627.08, 2687.00
  625.20, 2736.00
  623.32, 2787.00
  621.44, 2824.00
  619.55, 2920.00
  617.67, 2977.00
  615.79, 3025.00
  613.91, 3069.00
  612.02, 3209.00
  610.14, 3269.00
  608.25, 3353.00
  606.37, 3424.00
  604.48, 3520.00
  602.60, 3644.00
  600.71, 3708.00
  598.82, 3853.00
  596.93, 3869.00
  595.05, 3944.00
  593.16, 4024.00
  591.27, 4045.00
  589.38, 4090.00
  587.49, 4049.00
  585.60, 4069.00
  583.71, 4124.00
  581.82, 4056.00
  579.93, 4022.00
  578.04, 4095.00
  576.15, 4101.00
  574.25, 4103.00
  572.36, 4136.00
  570.47, 4218.00
  568.57, 4262.00
  566.68, 4283.00
  564.79, 4379.00
  562.89, 4456.00
  561.00, 4587.00
  559.10, 4657.00
  557.20, 4742.00
  555.31, 4837.00
  553.41, 4947.00
  551.51, 5119.00
  549.62, 5239.00
  547.72, 5375.00
  545.82, 5516.00
  543.92, 5744.00
  542.02, 5873.00
  540.12, 6097.00
  538.22, 6325.00
  536.32, 6540.00
  534.42, 6796.00
  532.51, 7080.00
  530.61, 7273.00
  528.71, 7555.00
  526.81, 7770.00
  524.90, 7974.00
  523.00, 8199.00
  521.10, 8322.00
  519.19, 8405.00
  517.29, 8366.00
  515.38, 8364.00
  513.47, 8253.00
  511.57, 7947.00
  509.66, 7733.00
  507.75, 7485.00
  505.85, 7267.00
  503.94, 7027.00
  502.03, 6930.00
  500.12, 6703.00
  498.21, 6627.00
  496.30, 6514.00
  494.39, 6353.00
  492.48, 6263.00
  490.57, 6191.00
  488.66, 6067.00
  486.74, 5977.00
  484.83, 5913.00
  482.92, 5839.00
  481.01, 5707.00
  479.09, 5689.00
  477.18, 5640.00
  475.26, 5563.00
  473.35, 5513.00
  471.43, 5493.00
  469.52, 5435.00
  467.60, 5385.00
  465.69, 5371.00
  463.77, 5379.00
  461.85, 5315.00
  459.93, 5317.00
  458.01, 5265.00
  456.10, 5309.00
  454.18, 5230.00
  452.26, 5199.00
  450.34, 5183.00
  448.42, 5173.00
  446.49, 4980.00
  444.57, 5129.00
  442.65, 5073.00
  440.73, 5038.00
  438.81, 5041.00
  436.88, 5003.00
  434.96, 4982.00
  433.04, 4934.00
  431.11, 4940.00
  429.19, 4933.00
  427.26, 4887.00
  425.34, 4828.00
  423.41, 4765.00
  421.48, 4759.00
  419.56, 4767.00
  417.63, 4738.00
  415.70, 4661.00
  413.77, 4675.00
  411.84, 4689.00
  409.91, 4638.00
  407.98, 4618.00
  406.05, 4589.00
  404.12, 4551.00
  402.19, 4543.00
  400.26, 4515.00
  398.33, 4539.00
  396.40, 4483.00
  394.46, 4486.00
  392.53, 4465.00
  390.60, 4363.00
  388.66, 4375.00
  386.73, 4427.00
  384.79, 4383.00
  382.86, 4367.00
  380.92, 4340.00
  378.99, 4286.00
  377.05, 4266.00
  375.11, 4308.00
  373.18, 4142.00
  371.24, 4261.00
  369.30, 4229.00
  367.36, 4223.00
  365.42, 4193.00
  363.48, 4149.00
  361.54, 4166.00
  359.60, 4123.00
  357.66, 4078.00
  355.72, 4089.00
  353.78, 4083.00
  351.84, 4027.00
  349.89, 4009.00
  347.95, 3995.00
  346.01, 3992.00
  344.06, 3950.00
  342.12, 3935.00
  340.17, 3912.00
  338.23, 3881.00
  336.28, 3913.00
  334.34, 3835.00
  332.39, 3861.00
  330.44, 3811.00
  328.50, 3840.00
  326.55, 3863.00
  324.60, 3819.00
  322.65, 3778.00
  320.70, 3773.00
  318.75, 3818.00
  316.80, 3803.00
  314.85, 3757.00
  312.90, 3787.00
  310.95, 3717.00
  309.00, 3740.00
  307.05, 3691.00
  305.09, 3639.00
  303.14, 3639.00
  301.19, 3592.00
  299.23, 3599.00
  297.28, 3602.00
  295.32, 3583.00
  293.37, 3574.00
  291.41, 3597.00
  289.46, 3535.00
  287.50, 3557.00
  285.54, 3487.00
  283.59, 3538.00
  281.63, 3509.00
  279.67, 3507.00
  277.71, 3470.00
  275.75, 3471.00
  273.79, 3458.00
  271.83, 3439.00
  269.87, 3459.00
  267.91, 3445.00
  265.95, 3419.00
  263.99, 3459.00
  262.02, 3447.00
  260.06, 3434.00
  258.10, 3409.00
  256.14, 3420.00
  254.17, 3403.00
  252.21, 3394.00
  250.24, 3401.00
  248.28, 3460.00
  246.31, 3398.00
  244.34, 3383.00
  242.38, 3427.00
  240.41, 3417.00
  238.44, 3419.00
  236.48, 3445.00
  234.51, 3409.00
  232.54, 3413.00
  230.57, 3418.00
  228.60, 3400.00
  226.63, 3439.00
  224.66, 3463.00
  222.69, 3453.00
  220.72, 3457.00
  218.74, 3453.00
  216.77, 3459.00
  214.80, 3483.00
  212.82, 3478.00
  210.85, 3497.00
  208.88, 3505.00
  206.90, 3510.00
  204.93, 3523.00
  202.95, 3545.00
  200.98, 3575.00
  199.00, 3551.00
