 1361.90,  806.30
 1361.06,  792.10
 1360.22,  787.40
 1359.39,  772.40
 1358.55,  808.20
 1357.71,  833.50
 1356.87,  818.20
 1356.04,  772.00
 1355.20,  767.90
 1354.36,  798.00
 1353.52,  805.90
 1352.69,  797.20
 1351.85,  805.90
 1351.01,  793.90
 1350.17,  795.60
 1349.34,  787.60
 1348.50,  791.10
 1347.66,  832.90
 1346.82,  840.90
 1345.98,  829.60
 1345.14,  788.10
 1344.30,  807.90
 1343.46,  811.30
 1342.63,  807.30
 1341.79,  839.90
 1340.95,  836.80
 1340.11,  840.40
 1339.27,  848.00
 1338.43,  826.10
 1337.59,  804.40
 1336.75,  828.60
 1335.91,  817.40
 1335.07,  830.70
 1334.23,  817.10
 1333.39,  779.80
 1332.55,  797.70
 1331.71,  845.00
 1330.87,  851.00
 1330.03,  827.80
 1329.19,  829.20
 1328.35,  803.20
 1327.51,  809.30
 1326.67,  822.60
 1325.83,  840.30
 1324.99,  851.60
 1324.15,  817.70
 1323.30,  807.20
 1322.46,  795.90
 1321.62,  843.80
 1320.78,  860.10
 1319.94,  861.60
 1319.10,  835.50
 1318.26,  814.30
 1317.41,  792.40
 1316.57,  812.00
 1315.73,  821.00
 1314.89,  810.70
 1314.05,  789.70
 1313.21,  796.10
 1312.36,  822.90
 1311.52,  793.80
 1310.68,  805.30
 1309.84,  845.60
 1308.99,  863.30
 1308.15,  844.80
 1307.31,  887.20
 1306.46,  892.40
 1305.62,  830.80
 1304.78,  816.40
 1303.93,  861.30
 1303.09,  863.10
 1302.25,  832.60
 1301.40,  828.30
 1300.56,  871.60
 1299.71,  891.60
 1298.87,  880.20
 1298.03,  896.40
 1297.18, 1015.30
 1296.34, 1016.30
 1295.50,  961.30
 1294.65,  931.60
 1293.81,  911.50
 1292.96,  909.10
 1292.12,  897.20
 1291.27,  884.70
 1290.43,  902.60
 1289.58,  908.50
 1288.74,  916.80
 1287.89,  923.40
 1287.05,  908.10
 1286.20,  915.00
 1285.36,  918.30
 1284.51,  884.40
 1283.67,  830.30
 1282.82,  821.50
 1281.97,  842.20
 1281.13,  863.60
 1280.28,  885.70
 1279.44,  898.30
 1278.59,  868.60
 1277.74,  803.80
 1276.90,  841.60
 1276.05,  884.60
 1275.20,  888.90
 1274.36,  862.20
 1273.51,  822.50
 1272.66,  815.70
 1271.82,  820.40
 1270.97,  846.00
 1270.12,  831.70
 1269.27,  844.50
 1268.43,  845.10
 1267.58,  846.90
 1266.73,  851.40
 1265.88,  842.90
 1265.04,  857.20
 1264.19,  844.20
 1263.34,  821.30
 1262.49,  849.40
 1261.64,  847.30
 1260.80,  837.20
 1259.95,  858.70
 1259.10,  908.30
 1258.25,  909.50
 1257.40,  873.60
 1256.55,  869.60
 1255.71,  897.40
 1254.86,  889.50
 1254.01,  887.60
 1253.16,  840.20
 1252.31,  864.40
 1251.46,  865.90
 1250.61,  876.00
 1249.76,  866.50
 1248.91,  872.10
 1248.06,  899.50
 1247.21,  889.70
 1246.36,  864.40
 1245.51,  864.80
 1244.66,  885.30
 1243.81,  875.50
 1242.96,  864.80
 1242.11,  856.50
 1241.26,  849.30
 1240.41,  895.80
 1239.56,  922.10
 1238.71,  900.10
 1237.86,  854.60
 1237.00,  870.00
 1236.15,  849.10
 1235.30,  881.70
 1234.45,  907.90
 1233.60,  907.90
 1232.75,  888.10
 1231.90,  912.20
 1231.04,  933.30
 1230.19,  915.10
 1229.34,  911.80
 1228.49,  890.60
 1227.64,  888.40
 1226.79,  869.90
 1225.93,  878.30
 1225.08,  879.40
 1224.23,  884.40
 1223.37,  868.00
 1222.52,  900.20
 1221.67,  929.60
 1220.82,  912.90
 1219.96,  936.00
 1219.11,  930.70
 1218.26,  928.30
 1217.40,  933.40
 1216.55,  987.00
 1215.70,  949.70
 1214.84,  929.30
 1213.99,  975.60
 1213.14,  978.80
 1212.28, 1008.20
 1211.43, 1060.40
 1210.57, 1007.70
 1209.72,  980.70
 1208.87,  986.50
 1208.01, 1002.80
 1207.16, 1046.10
 1206.30, 1037.20
 1205.45, 1036.50
 1204.59, 1017.70
 1203.74,  989.40
 1202.88, 1015.70
 1202.03, 1021.70
 1201.17, 1030.50
 1200.32, 1010.10
 1199.46, 1004.20
 1198.61,  998.30
 1197.75,  995.70
 1196.90, 1000.50
 1196.04, 1040.00
 1195.19, 1020.70
 1194.33, 1020.90
 1193.47, 1053.10
 1192.62, 1031.20
 1191.76, 1002.20
 1190.90, 1023.80
 1190.05, 1040.20
 1189.19, 1058.00
 1188.33, 1101.10
 1187.48, 1120.20
 1186.62, 1143.30
 1185.76, 1136.40
 1184.91, 1106.90
 1184.05, 1148.70
 1183.19, 1159.00
 1182.34, 1157.00
 1181.48, 1138.20
 1180.62, 1162.20
 1179.76, 1166.30
 1178.91, 1149.20
 1178.05, 1146.50
 1177.19, 1171.90
 1176.33, 1182.50
 1175.47, 1204.00
 1174.62, 1171.30
 1173.76, 1160.60
 1172.90, 1222.90
 1172.04, 1245.50
 1171.18, 1244.10
 1170.32, 1293.60
 1169.46, 1300.30
 1168.61, 1267.60
 1167.75, 1243.30
 1166.89, 1267.20
 1166.03, 1297.60
 1165.17, 1301.70
 1164.31, 1343.20
 1163.45, 1360.00
 1162.59, 1402.10
 1161.73, 1439.40
 1160.87, 1466.20
 1160.01, 1454.80
 1159.15, 1506.40
 1158.29, 1489.50
 1157.43, 1479.20
 1156.57, 1505.60
 1155.71, 1550.30
 1154.85, 1545.50
 1153.99, 1606.60
 1153.13, 1611.40
 1152.27, 1649.90
 1151.41, 1696.30
 1150.55, 1696.10
 1149.69, 1697.50
 1148.82, 1691.30
 1147.96, 1787.50
 1147.10, 1900.70
 1146.24, 1896.10
 1145.38, 1951.90
 1144.52, 1991.20
 1143.65, 2007.80
 1142.79, 2033.10
 1141.93, 2173.50
 1141.07, 2215.30
 1140.21, 2211.80
 1139.34, 2216.60
 1138.48, 2316.40
 1137.62, 2402.20
 1136.76, 2501.40
 1135.89, 2578.00
 1135.03, 2581.70
 1134.17, 2647.10
 1133.31, 2790.10
 1132.44, 2872.70
 1131.58, 2948.00
 1130.72, 3037.90
 1129.85, 3070.90
 1128.99, 3113.40
 1128.13, 3295.60
 1127.26, 3522.90
 1126.40, 3558.00
 1125.53, 3611.40
 1124.67, 3618.30
 1123.81, 3768.90
 1122.94, 3962.20
 1122.08, 4078.60
 1121.21, 4142.00
 1120.35, 4303.80
 1119.48, 4538.50
 1118.62, 4546.50
 1117.76, 4572.00
 1116.89, 4758.70
 1116.03, 4959.90
 1115.16, 5050.90
 1114.30, 5191.30
 1113.43, 5338.40
 1112.56, 5421.40
 1111.70, 5558.10
 1110.83, 5704.50
 1109.97, 5855.60
 1109.10, 6068.00
 1108.24, 6325.10
 1107.37, 6410.90
 1106.50, 6512.30
 1105.64, 6678.50
 1104.77, 6744.10
 1103.91, 6841.40
 1103.04, 7077.50
 1102.17, 7203.30
 1101.31, 7267.30
 1100.44, 7588.10
 1099.57, 7787.50
 1098.71, 7872.00
 1097.84, 7971.40
 1096.97, 8170.00
 1096.11, 8285.60
 1095.24, 8607.00
 1094.37, 8943.70
 1093.50, 9147.20
 1092.63, 8980.60
 1091.77, 9033.50
 1090.90, 9187.20
 1090.03, 9489.00
 1089.16, 9635.90
 1088.29, 9680.20
 1087.43, 9784.30
 1086.56,10021.10
 1085.69,10316.50
 1084.82,10468.40
 1083.95,10361.30
 1083.08,10596.10
 1082.21,10811.90
 1081.35,10916.50
 1080.47,10986.10
 1079.61,11036.10
 1078.74,11195.30
 1077.87,11389.40
 1077.00,11608.20
 1076.13,11587.20
 1075.26,11609.20
 1074.39,11517.50
 1073.52,11755.50
 1072.65,12202.90
 1071.78,12226.10
 1070.91,12233.50
 1070.04,12306.00
 1069.17,12358.50
 1068.30,12519.70
 1067.43,12612.60
 1066.56,12607.60
 1065.69,12852.80
 1064.82,13115.10
 1063.95,13019.70
 1063.07,12981.50
 1062.20,12904.10
 1061.33,13139.90
 1060.46,13288.20
 1059.59,13336.90
 1058.72,13324.50
 1057.85,13527.60
 1056.97,13457.60
 1056.10,13256.20
 1055.23,13363.80
 1054.36,13551.20
 1053.49,13775.90
 1052.61,13822.00
 1051.74,13743.70
 1050.87,13729.60
 1050.00,13776.20
 1049.12,13819.30
 1048.25,13822.80
 1047.38,13774.90
 1046.51,13993.70
 1045.63,13814.90
 1044.76,13633.30
 1043.88,13730.90
 1043.01,13702.80
 1042.14,13763.80
 1041.27,13593.30
 1040.39,13628.80
 1039.52,13766.00
 1038.64,13622.00
 1037.77,13666.10
 1036.90,13752.80
 1036.02,13623.60
 1035.15,13622.30
 1034.27,13719.00
 1033.40,13535.50
 1032.52,13628.60
 1031.65,13563.90
 1030.77,13635.70
 1029.90,13721.30
 1029.02,13675.40
 1028.15,13516.40
 1027.27,13388.20
 1026.40,13461.50
 1025.52,13548.40
 1024.65,13515.70
 1023.77,13325.30
 1022.90,13337.30
 1022.02,13325.60
 1021.14,13090.50
 1020.27,13156.30
 1019.39,13126.30
 1018.52,13365.60
 1017.64,13497.00
 1016.76,13290.00
 1015.89,13149.20
 1015.01,13180.30
 1014.13,13113.40
 1013.26,13098.00
 1012.38,13339.60
 1011.50,13146.10
 1010.63,12970.50
 1009.75,12890.00
 1008.87,12941.70
 1007.99,12690.20
 1007.12,12863.30
 1006.24,12904.40
 1005.36,12885.90
 1004.48,12833.90
 1003.61,12728.90
 1002.72,12688.30
 1001.85,12682.40
 1000.97,12589.20
 1000.09,12586.10
  999.21,12465.50
  998.33,12562.40
  997.46,12473.30
  996.58,12261.40
  995.70,12100.40
  994.82,12228.70
  993.94,12160.80
  993.06,12237.10
  992.18,12272.00
  991.30,12257.50
  990.42,12423.70
  989.54,12253.00
  988.66,12211.90
  987.78,12325.70
  986.90,12261.10
  986.02,11987.60
  985.14,11849.50
  984.26,11719.20
  983.38,11829.00
  982.50,11852.10
  981.62,11791.80
  980.74,11691.70
  979.86,11718.20
  978.98,11700.50
  978.10,11596.20
  977.22,11561.70
  976.34,11516.50
  975.46,11458.40
  974.57,11126.10
  973.69,11132.40
  972.81,11335.90
  971.93,11138.50
  971.05,11144.90
  970.16,11119.20
  969.28,10762.40
  968.40,10696.10
  967.52,10718.30
  966.64,10737.10
  965.76,10850.40
  964.87,10718.30
  963.99,10751.60
  963.11,10628.50
  962.22,10584.80
  961.34,10498.10
  960.46,10399.20
  959.58,10388.60
  958.69,10279.80
  957.81,10125.70
  956.93, 9907.10
  956.04, 9909.70
  955.16, 9972.60
  954.28,10009.10
  953.39, 9918.50
  952.51, 9890.90
  951.62, 9930.50
  950.74, 9973.90
  949.86, 9819.70
  948.97, 9838.80
  948.09, 9787.10
  947.20, 9817.60
  946.32, 9894.90
  945.43, 9836.00
  944.55, 9599.60
  943.66, 9665.60
  942.78, 9714.00
  941.89, 9618.80
  941.01, 9411.40
  940.12, 9399.30
  939.24, 9446.60
  938.35, 9435.30
  937.47, 9396.90
  936.58, 9506.00
  935.70, 9397.30
  934.81, 9165.00
  933.92, 9112.60
  933.04, 9041.60
  932.15, 9052.00
  931.26, 9034.90
  930.38, 8777.70
  929.49, 8742.00
  928.60, 8624.40
  927.72, 8476.90
  926.83, 8312.00
  925.94, 8392.90
  925.06, 8441.10
  924.17, 8329.40
  923.28, 8271.20
  922.39, 8208.10
  921.51, 8063.50
  920.62, 8009.80
  919.73, 7978.00
  918.84, 7794.30
  917.96, 7591.40
  917.07, 7568.30
  916.18, 7477.30
  915.29, 7355.90
  914.40, 7151.20
  913.52, 7076.80
  912.63, 6949.80
  911.74, 6866.00
  910.85, 6727.70
  909.96, 6419.70
  909.07, 6303.70
  908.18, 6293.30
  907.29, 6121.90
  906.40, 6051.70
  905.51, 5948.50
  904.63, 5813.00
  903.74, 5717.70
  902.84, 5754.40
  901.96, 5644.70
  901.06, 5463.10
  900.18, 5321.50
  899.29, 5160.40
  898.40, 5092.20
  897.50, 5081.00
  896.61, 4980.90
  895.72, 4897.70
  894.83, 4822.20
  893.94, 4779.60
  893.05, 4644.30
  892.16, 4493.50
  891.27, 4328.20
  890.38, 4177.30
  889.49, 4071.10
  888.60, 3963.50
  887.71, 3829.30
  886.81, 3881.80
  885.92, 3755.80
  885.03, 3670.20
  884.14, 3661.00
  883.25, 3563.30
  882.35, 3425.70
  881.46, 3373.90
  880.57, 3317.80
  879.68, 3233.30
  878.79, 3157.20
  877.89, 3127.40
  877.00, 3033.90
  876.11, 2893.10
  875.21, 2815.90
  874.32, 2778.90
  873.43, 2805.60
  872.53, 2751.00
  871.64, 2728.10
  870.75, 2653.10
  869.85, 2588.20
  868.96, 2553.40
  868.07, 2473.60
  867.17, 2439.10
  866.28, 2404.60
  865.39, 2440.70
  864.49, 2427.60
  863.60, 2348.50
  862.70, 2277.30
  861.81, 2230.60
  860.91, 2219.40
  860.02, 2228.50
  859.13, 2202.50
  858.23, 2178.90
  857.33, 2159.30
  856.44, 2117.60
  855.54, 2108.20
  854.65, 2140.20
  853.75, 2077.30
  852.86, 2088.00
  851.96, 2057.00
  851.07, 2061.70
  850.17, 2073.50
  849.28, 2059.80
  848.38, 2086.50
  847.48, 2049.60
  846.59, 2012.30
  845.69, 1988.80
  844.79, 1990.10
  843.90, 2034.30
  843.00, 1992.30
  842.10, 2035.30
  841.21, 2097.90
  840.31, 2127.70
  839.41, 2050.10
  838.52, 1987.60
  837.62, 1971.30
  836.72, 1985.80
  835.82, 1958.00
  834.93, 1872.20
  834.03, 1838.60
  833.06, 1787.44
  832.16, 1738.58
  831.27, 1689.28
  830.38, 1662.65
  829.48, 1663.38
  828.59, 1637.16
  827.70, 1607.75
  826.80, 1611.10
  825.91, 1620.39
  825.02, 1590.37
  824.12, 1594.85
  823.23, 1593.09
  822.34, 1599.23
  821.44, 1590.99
  820.55, 1568.54
  819.65, 1587.49
  818.76, 1602.86
  817.87, 1603.39
  816.97, 1580.36
  816.08, 1568.34
  815.18, 1590.61
  814.29, 1574.14
  813.39, 1560.84
  812.50, 1561.73
  811.60, 1549.35
  810.71, 1540.68
  809.81, 1559.02
  808.91, 1567.57
  808.02, 1564.05
  807.13, 1537.86
  806.23, 1539.11
  805.33, 1553.77
  804.44, 1570.09
  803.54, 1590.17
  802.64, 1615.60
  801.75, 1619.33
  800.85, 1606.35
  799.96, 1593.55
  799.06, 1622.01
  798.16, 1645.79
  797.27, 1644.45
  796.37, 1657.75
  795.47, 1656.05
  794.58, 1663.64
  793.68, 1686.06
  792.78, 1696.18
  791.88, 1770.57
  790.98, 1769.59
  790.09, 1750.41
  789.19, 1779.30
  788.29, 1811.70
  787.40, 1813.21
  786.50, 1880.33
  785.60, 1929.49
  784.70, 1910.91
  783.80, 1924.16
  782.90, 1995.77
  782.01, 2010.41
  781.11, 2036.30
  780.21, 2108.53
  779.31, 2141.75
  778.41, 2152.47
  777.51, 2199.48
  776.61, 2252.97
  775.71, 2278.50
  774.81, 2301.64
  773.91, 2380.76
  773.01, 2339.89
  772.11, 2354.39
  771.21, 2367.30
  770.31, 2404.84
  769.41, 2503.76
  768.51, 2515.64
  767.62, 2528.60
  766.71, 2566.10
  765.81, 2598.40
  764.91, 2663.00
  764.01, 2741.30
  763.11, 2784.70
  762.21, 2953.80
  761.31, 3205.30
  760.41, 3120.70
  759.51, 3037.80
  758.61, 3051.90
  757.71, 3028.30
  756.80, 2967.50
  755.90, 3002.70
  755.00, 3058.90
  754.10, 3064.60
  753.20, 3133.20
  752.29, 3134.80
  751.39, 3161.70
  750.49, 3174.70
  749.59, 3220.70
  748.69, 3170.80
  747.78, 3230.10
  746.88, 3309.70
  745.98, 3349.60
  745.07, 3397.10
  744.17, 3417.10
  743.27, 3421.30
  742.37, 3417.00
  741.46, 3541.00
  740.56, 3558.40
  739.65, 3651.60
  738.75, 3603.30
  737.85, 3555.10
  736.94, 3606.60
  736.04, 3638.10
  735.13, 3582.70
  734.23, 3622.90
  733.33, 3677.60
  732.42, 3720.60
  731.52, 3789.20
  730.61, 3813.00
  729.71, 3791.70
  728.80, 3837.80
  727.90, 3743.80
  726.99, 3768.40
  726.09, 3846.90
  725.19, 3896.60
  724.28, 3968.10
  723.37, 3994.80
  722.47, 4029.50
  721.56, 4056.40
  720.66, 4113.50
  719.75, 4093.50
  718.85, 4048.60
  717.94, 4048.10
  717.03, 4002.10
  716.13, 4050.10
  715.22, 4038.10
  714.31, 4083.00
  713.41, 4057.50
  712.50, 4109.50
  711.60, 4171.90
  710.69, 4251.20
  709.78, 4248.00
  708.87, 4239.10
  707.96, 4334.70
  707.06, 4416.90
  706.15, 4410.70
  705.24, 4500.50
  704.33, 4497.60
  703.43, 4523.90
  702.52, 4595.70
  701.61, 4629.40
  700.70, 4623.20
  699.79, 4618.40
  698.89, 4576.10
  697.98, 4650.90
  697.07, 4695.80
  696.16, 4722.50
  695.25, 4732.60
  694.34, 4750.60
  693.43, 4762.60
  692.53, 4873.40
  691.62, 4949.20
  690.71, 4986.00
  689.80, 4982.10
  688.89, 5024.30
  687.98, 5178.20
  687.07, 5225.10
  686.16, 5135.20
  685.25, 5179.50
  684.34, 5216.00
  683.43, 5329.80
  682.52, 5361.30
  681.61, 5454.20
  680.70, 5570.10
  679.79, 5486.70
  678.88, 5535.60
  677.97, 5652.70
  677.06, 5700.10
  676.14, 5598.80
  675.23, 5614.10
  674.32, 5616.70
  673.41, 5754.30
  672.50, 5916.30
  671.59, 5951.90
  670.68, 5905.10
  669.77, 5979.70
  668.85, 6075.10
  667.94, 6072.40
  667.03, 6128.30
  666.12, 6244.40
  665.21, 6336.80
  664.29, 6376.40
  663.38, 6436.30
  662.47, 6416.50
  661.55, 6477.90
  660.64, 6511.90
  659.73, 6576.90
  658.82, 6663.10
  657.90, 6728.70
  656.99, 6736.20
  656.08, 6794.00
  655.16, 6781.50
  654.25, 6872.20
  653.34, 6995.60
  652.42, 7001.10
  651.51, 6998.60
  650.59, 7102.50
  649.68, 7088.00
  648.77, 7135.30
  647.85, 7143.50
  646.94, 7341.10
  646.02, 7386.90
  645.11, 7406.60
  644.19, 7434.70
  643.28, 7551.20
  642.37, 7660.60
  641.45, 7566.40
  640.53, 7455.10
  639.62, 7624.30
  638.70, 7779.00
  637.79, 7751.40
  636.87, 7774.80
  635.96, 7877.10
  635.04, 7924.00
  634.13, 8180.10
  633.21, 8088.40
  632.29, 7996.40
  631.38, 7925.00
  630.46, 8126.50
  629.54, 8080.40
  628.63, 8163.20
  627.71, 8141.50
  626.79, 8247.00
  625.88, 8219.20
  624.96, 8267.80
  624.04, 8386.90
  623.13, 8417.50
  622.21, 8596.60
  621.29, 8475.60
  620.37, 8537.20
  619.46, 8562.10
  618.54, 8626.40
  617.62, 8615.30
  616.70, 8693.50
  615.79, 8833.80
  614.87, 8967.60
  613.95, 8907.10
  613.03, 8828.50
  612.11, 9000.80
  611.19, 9064.50
  610.27, 9003.70
  609.36, 9011.80
  608.44, 9103.40
  607.52, 9152.50
  606.60, 9097.90
  605.68, 9203.30
  604.76, 9300.00
  603.84, 9531.10
  602.92, 9442.50
  602.00, 9474.30
  601.08, 9386.30
  600.16, 9449.60
  599.24, 9601.10
  598.32, 9750.50
  597.40, 9825.00
  596.48, 9919.30
  595.56, 9936.00
  594.64, 9920.10
  593.72,10111.20
  592.80,10118.50
  591.88,10160.90
  590.96,10245.40
  590.03,10321.50
  589.11,10555.10
  588.19,10599.10
  587.27,10733.70
  586.35,10921.10
  585.43,11070.60
  584.51,11128.20
  583.58,11117.20
  582.66,11342.10
  581.74,11418.70
  580.82,11506.60
  579.89,11482.40
  578.97,11805.50
  578.05,11937.70
  577.13,12092.60
  576.21,11968.40
  575.28,12095.00
  574.36,12241.20
  573.44,12452.40
  572.51,12412.70
  571.59,12422.70
  570.66,12678.10
  569.74,12647.10
  568.82,12721.40
  567.89,12851.10
  566.97,12768.80
  566.05,12775.90
  565.12,12643.00
  564.20,12796.60
  563.27,12824.00
  562.35,12842.10
  561.43,12826.20
  560.50,12959.60
  559.58,12881.10
  558.65,12767.50
  557.73,12615.90
  556.80,12776.40
  555.88,12727.50
  554.95,12664.00
  554.03,12600.60
  553.10,12548.80
  552.18,12636.60
  551.25,12671.20
  550.32,12752.00
  549.40,12649.10
  548.47,12614.10
  547.54,12446.70
  546.62,12343.70
  545.69,12189.50
  544.76,12260.20
  543.84,12291.60
  542.91,12321.70
  541.99,12170.30
  541.06,12274.50
  540.13,12247.20
  539.21,12246.20
  538.28,12361.40
  537.35,12444.00
  536.42,12262.70
  535.50,12289.60
  534.57,12326.10
  533.64,12237.00
  532.71,12126.50
  531.78,12211.00
  530.86,12237.70
  529.93,12102.80
  529.00,12216.70
  528.07,12115.40
  527.14,12147.00
  526.21,12050.00
  525.29,12036.20
  524.36,12137.90
  523.43,12090.20
  522.50,12059.10
  521.57,12108.90
  520.64,12169.20
  519.71,12047.70
  518.78,11924.30
  517.85,11943.40
  516.92,12033.40
  515.99,12104.20
  515.06,11944.50
  514.13,11873.30
  513.20,11747.20
  512.27,11892.10
  511.34,11806.30
  510.41,11771.60
  509.48,11792.30
  508.55,11838.10
  507.62,11778.30
  506.69,11565.00
  505.76,11652.30
  504.83,11534.00
  503.89,11673.40
  502.96,11544.90
  502.03,11410.90
  501.10,11281.10
  500.17,11214.00
  499.23,11196.50
  498.30,11354.90
  497.37,11245.80
  496.44,11229.40
  495.51,11110.20
  494.57,10989.60
  493.64,11000.20
  492.71,10898.00
  491.78,10758.40
  490.84,10676.20
  489.91,10641.40
  488.98,10719.90
  488.05,10746.20
  487.11,10564.30
  486.18,10508.60
  485.24,10385.80
  484.31,10299.50
  483.38,10372.50
  482.45,10214.00
  481.51,10394.70
  480.58,10312.00
  479.64,10384.10
  478.71,10282.80
  477.77,10033.90
  476.84, 9794.70
  475.90, 9685.10
  474.97, 9728.40
  474.03, 9740.50
  473.10, 9736.50
  472.17, 9679.00
  471.23, 9596.50
  470.29, 9675.40
  469.36, 9635.00
  468.42, 9673.80
  467.49, 9662.10
  466.55, 9592.40
  465.62, 9571.90
  464.68, 9560.60
  463.74, 9455.00
  462.81, 9425.40
  461.87, 9396.40
  460.94, 9261.10
  460.00, 9308.90
  459.06, 9113.50
  458.13, 9040.20
  457.19, 9083.00
  456.25, 9099.40
  455.32, 9019.40
  454.38, 9083.40
  453.44, 9175.90
  452.50, 9066.70
  451.57, 8995.90
  450.63, 8930.00
  449.69, 8889.60
  448.75, 8901.30
  447.82, 8850.30
  446.88, 8746.20
  445.94, 8760.60
  445.00, 8748.50
  444.06, 8643.00
  443.12, 8638.40
  442.18, 8619.20
  441.25, 8619.80
  440.31, 8525.30
  439.37, 8584.50
  438.43, 8611.20
  437.49, 8628.90
  436.55, 8760.80
  435.61, 8705.10
  434.67, 8682.60
  433.73, 8763.70
  432.79, 8717.10
  431.85, 8694.10
  430.91, 8576.20
  429.97, 8465.50
  429.03, 8688.10
  428.09, 8689.30
  427.15, 8564.50
  426.21, 8499.50
  425.27, 8563.40
  424.33, 8603.10
  423.39, 8597.90
  422.45, 8590.80
  421.51, 8579.00
  420.57, 8467.00
  419.63, 8453.40
  418.69, 8343.70
  417.74, 8466.70
  416.80, 8361.10
  415.86, 8361.20
  414.92, 8370.10
  413.98, 8198.60
  413.04, 8243.70
  412.09, 8368.50
  411.15, 8186.30
  410.21, 8212.80
  409.26, 8277.60
  408.32, 8413.70
  407.38, 8448.00
  406.44, 8363.60
  405.49, 8365.60
  404.55, 8194.60
  403.61, 8078.20
  402.66, 8107.80
  401.72, 8045.60
  400.78, 8093.60
  399.83, 8266.30
  398.89, 8192.70
  397.95, 8229.20
  397.00, 8107.00
  396.06, 8117.80
  395.11, 8094.30
  394.17, 8138.90
  393.22, 8135.50
  392.28, 8106.40
  391.34, 8176.60
  390.39, 8164.10
  389.45, 8165.70
  388.50, 8148.00
  387.56, 8048.10
  386.61, 8091.10
  385.67, 8072.10
  384.72, 7969.60
  383.78, 7758.80
  382.83, 7893.60
  381.88, 7999.30
  380.94, 8056.40
  379.99, 7990.10
  379.04, 7908.00
  378.10, 7878.80
  377.15, 7797.60
  376.21, 7844.10
  375.26, 7861.30
  374.31, 7943.30
  373.37, 7961.30
  372.42, 7935.30
  371.47, 7975.30
  370.53, 7984.50
  369.58, 8053.80
  368.63, 7944.90
  367.68, 7871.50
  366.74, 7910.50
  365.79, 7870.00
  364.84, 7858.80
  363.89, 7845.90
  362.95, 7781.60
  362.00, 7790.00
  361.05, 7745.50
  360.10, 7691.90
  359.15, 7828.10
  358.21, 7915.00
  357.26, 7840.30
  356.30, 7889.50
  355.36, 7808.80
  354.41, 7791.50
  353.46, 7851.10
  352.51, 7844.10
  351.56, 7735.40
  350.61, 7766.20
  349.66, 7664.90
  348.71, 7639.00
  347.76, 7632.10
  346.81, 7787.20
  345.86, 7882.50
  344.91, 7804.50
  343.96, 7721.50
  343.01, 7781.70
  342.06, 7743.80
  341.11, 7854.50
  340.16, 7843.10
  339.21, 7844.50
  338.26, 7889.50
  337.31, 7863.30
  336.36, 7834.70
  335.40, 7743.80
  334.45, 7866.50
  333.50, 7859.80
  332.55, 7873.10
  331.60, 7839.10
  330.65, 7812.90
  329.69, 7683.30
  328.74, 7716.30
  327.79, 7828.40
  326.84, 7874.90
  325.88, 8024.30
  324.93, 7946.10
  323.98, 7811.20
  323.03, 7943.60
  322.08, 7911.10
  321.12, 7791.40
  320.17, 7927.80
  319.21, 8000.20
  318.26, 7821.30
  317.31, 7914.50
  316.36, 7955.30
  315.40, 8021.60
  314.45, 8074.70
  313.49, 7983.10
  312.54, 7772.30
  311.59, 7828.20
  310.63, 7744.70
  309.68, 7825.90
  308.72, 7880.20
  307.77, 8000.50
  306.81, 7964.40
  305.86, 7857.60
  304.90, 7772.10
  303.95, 7726.00
  302.99, 7850.90
  302.04, 7917.30
  301.08, 7829.80
  300.13, 7828.60
  299.17, 7887.70
  298.22, 8063.10
  297.26, 7986.80
  296.30, 7957.90
  295.35, 8011.30
  294.39, 7948.30
  293.44, 7870.00
  292.48, 7934.50
  291.52, 8081.00
  290.57, 7984.00
  289.61, 7878.80
  288.65, 7748.30
  287.70, 7814.60
  286.74, 7800.30
  285.78, 7842.10
  284.82, 7912.70
  283.87, 8022.40
  282.91, 8007.40
  281.95, 7922.00
  280.99, 7980.10
  280.04, 8050.40
  279.08, 8048.80
  278.12, 8118.80
  277.16, 8108.00
  276.20, 8172.60
  275.24, 8214.40
  274.29, 8099.70
  273.33, 8012.30
  272.37, 8100.50
  271.41, 8124.70
  270.45, 8171.70
  269.49, 8287.00
  268.53, 8094.90
  267.57, 8110.40
  266.62, 8143.60
  265.65, 8015.30
  264.70, 8148.00
  263.73, 8193.50
  262.78, 8244.70
  261.82, 8276.50
  260.86, 8251.10
  259.89, 8259.20
  258.94, 8375.90
  257.97, 8367.40
  257.01, 8354.40
  256.05, 8309.50
  255.09, 8218.90
  254.13, 8335.80
  253.17, 8416.90
  252.21, 8421.80
  251.25, 8349.40
  250.29, 8346.90
  249.32, 8436.00
  248.36, 8407.30
  247.40, 8490.00
  246.44, 8508.40
  245.48, 8466.90
  244.52, 8492.10
  243.55, 8471.80
  242.59, 8496.70
  241.63, 8479.20
  240.67, 8463.30
  239.70, 8549.30
  238.74, 8580.70
  237.78, 8686.10
  236.81, 8724.70
  235.85, 8816.40
  234.89, 8706.20
  233.92, 8638.80
  232.96, 8606.90
  232.00, 8569.30
  231.03, 8575.90
  230.07, 8657.40
  229.11, 8795.60
  228.14, 8832.30
  227.18, 8777.90
  226.21, 8962.60
  225.25, 9002.60
  224.29, 9026.50
  223.32, 8916.60
  222.36, 9032.70
  221.39, 9038.00
  220.42, 9182.40
  219.46, 9177.50
  218.49, 9164.90
  217.53, 9118.40
  216.56, 9059.40
  215.60, 9118.80
  214.63, 9162.30
  213.67, 9162.30
  212.70, 9141.50
  211.74, 9291.90
  210.77, 9399.20
  209.80, 9207.90
  208.84, 9347.10
  207.87, 9285.10
  206.90, 9231.40
  205.94, 9378.60
  204.97, 9402.30
  204.00, 9664.40
  203.04, 9881.30
  202.07, 9778.90
  201.10, 9679.20
  200.13, 9613.60
  199.17, 9751.80
