 1467.21,   853.0
 1466.61,   832.0
 1466.02,   820.0
 1465.43,   827.0
 1464.84,   837.0
 1464.25,   821.0
 1463.65,   811.0
 1463.06,   817.0
 1462.47,   850.0
 1461.87,   793.0
 1461.28,   840.0
 1460.69,   855.0
 1460.10,   846.0
 1459.50,   823.0
 1458.91,   824.0
 1458.32,   834.0
 1457.72,   839.0
 1457.13,   837.0
 1456.54,   834.0
 1455.95,   785.0
 1455.35,   828.0
 1454.76,   828.0
 1454.17,   839.0
 1453.57,   824.0
 1452.98,   816.0
 1452.39,   830.0
 1451.79,   835.0
 1451.20,   801.0
 1450.60,   807.0
 1450.01,   813.0
 1449.42,   808.0
 1448.82,   807.0
 1448.23,   841.0
 1447.64,   799.0
 1447.04,   828.0
 1446.45,   798.0
 1445.85,   808.0
 1445.26,   841.0
 1444.67,   815.0
 1444.07,   842.0
 1443.48,   817.0
 1442.88,   783.0
 1442.29,   820.0
 1441.70,   816.0
 1441.10,   787.0
 1440.51,   806.0
 1439.91,   788.0
 1439.32,   801.0
 1438.72,   810.0
 1438.13,   814.0
 1437.53,   822.0
 1436.94,   793.0
 1436.35,   788.0
 1435.75,   844.0
 1435.16,   803.0
 1434.56,   799.0
 1433.97,   810.0
 1433.37,   776.0
 1432.78,   797.0
 1432.18,   790.0
 1431.59,   797.0
 1430.99,   797.0
 1430.40,   823.0
 1429.80,   810.0
 1429.21,   786.0
 1428.61,   780.0
 1428.02,   760.0
 1427.42,   797.0
 1426.83,   826.0
 1426.23,   818.0
 1425.63,   776.0
 1425.04,   773.0
 1424.44,   762.0
 1423.85,   783.0
 1423.25,   803.0
 1422.66,   793.0
 1422.06,   796.0
 1421.46,   800.0
 1420.87,   793.0
 1420.27,   793.0
 1419.68,   809.0
 1419.08,   771.0
 1418.48,   766.0
 1417.89,   757.0
 1417.29,   793.0
 1416.70,   786.0
 1416.10,   785.0
 1415.50,   783.0
 1414.91,   808.0
 1414.31,   785.0
 1413.71,   793.0
 1413.12,   781.0
 1412.52,   826.0
 1411.93,   797.0
 1411.33,   777.0
 1410.73,   780.0
 1410.14,   795.0
 1409.54,   808.0
 1408.94,   772.0
 1408.35,   744.0
 1407.75,   795.0
 1407.15,   785.0
 1406.55,   770.0
 1405.96,   774.0
 1405.36,   782.0
 1404.76,   775.0
 1404.17,   774.0
 1403.57,   786.0
 1402.97,   798.0
 1402.37,   796.0
 1401.78,   797.0
 1401.18,   768.0
 1400.58,   769.0
 1399.98,   762.0
 1399.39,   779.0
 1398.79,   763.0
 1398.19,   774.0
 1397.60,   759.0
 1397.00,   765.0
 1396.40,   804.0
 1395.80,   754.0
 1395.20,   766.0
 1394.61,   781.0
 1394.01,   795.0
 1393.41,   789.0
 1392.81,   771.0
 1392.21,   771.0
 1391.62,   763.0
 1391.02,   741.0
 1390.42,   760.0
 1389.82,   783.0
 1389.22,   760.0
 1388.62,   780.0
 1388.03,   795.0
 1387.43,   797.0
 1386.83,   740.0
 1386.23,   775.0
 1385.63,   762.0
 1385.03,   775.0
 1384.44,   779.0
 1383.84,   782.0
 1383.24,   768.0
 1382.64,   757.0
 1382.04,   754.0
 1381.44,   763.0
 1380.84,   761.0
 1380.24,   771.0
 1379.65,   791.0
 1379.05,   770.0
 1378.45,   747.0
 1377.85,   763.0
 1377.25,   757.0
 1376.65,   762.0
 1376.05,   756.0
 1375.45,   768.0
 1374.85,   745.0
 1374.25,   759.0
 1373.65,   777.0
 1373.05,   760.0
 1372.45,   759.0
 1371.85,   768.0
 1371.25,   770.0
 1370.65,   780.0
 1370.05,   763.0
 1369.45,   760.0
 1368.86,   755.0
 1368.26,   769.0
 1367.66,   757.0
 1367.06,   779.0
 1366.46,   751.0
 1365.86,   766.0
 1365.26,   740.0
 1364.66,   777.0
 1364.05,   787.0
 1363.45,   794.0
 1362.85,   737.0
 1362.25,   750.0
 1361.65,   733.0
 1361.05,   756.0
 1360.45,   768.0
 1359.85,   731.0
 1359.25,   766.0
 1358.65,   759.0
 1358.05,   754.0
 1357.45,   750.0
 1356.85,   740.0
 1356.25,   730.0
 1355.65,   761.0
 1355.05,   754.0
 1354.45,   754.0
 1353.84,   730.0
 1353.24,   726.0
 1352.64,   769.0
 1352.04,   739.0
 1351.44,   756.0
 1350.84,   718.0
 1350.24,   744.0
 1349.64,   748.0
 1349.04,   748.0
 1348.43,   758.0
 1347.83,   745.0
 1347.23,   741.0
 1346.63,   763.0
 1346.03,   787.0
 1345.43,   749.0
 1344.82,   744.0
 1344.22,   760.0
 1343.62,   763.0
 1343.02,   759.0
 1342.42,   743.0
 1341.82,   754.0
 1341.21,   759.0
 1340.61,   757.0
 1340.01,   760.0
 1339.41,   750.0
 1338.81,   769.0
 1338.20,   740.0
 1337.60,   763.0
 1337.00,   736.0
 1336.40,   731.0
 1335.79,   740.0
 1335.19,   745.0
 1334.59,   741.0
 1333.99,   731.0
 1333.38,   762.0
 1332.78,   736.0
 1332.18,   743.0
 1331.58,   779.0
 1330.97,   754.0
 1330.37,   726.0
 1329.77,   746.0
 1329.16,   750.0
 1328.56,   740.0
 1327.96,   780.0
 1327.36,   759.0
 1326.75,   756.0
 1326.15,   771.0
 1325.55,   744.0
 1324.94,   745.0
 1324.34,   757.0
 1323.74,   756.0
 1323.13,   737.0
 1322.53,   751.0
 1321.93,   769.0
 1321.32,   748.0
 1320.72,   757.0
 1320.12,   733.0
 1319.51,   735.0
 1318.91,   724.0
 1318.31,   769.0
 1317.70,   757.0
 1317.10,   741.0
 1316.49,   751.0
 1315.89,   764.0
 1315.29,   774.0
 1314.68,   735.0
 1314.08,   748.0
 1313.47,   741.0
 1312.87,   748.0
 1312.27,   758.0
 1311.66,   745.0
 1311.06,   717.0
 1310.45,   735.0
 1309.85,   760.0
 1309.24,   740.0
 1308.64,   760.0
 1308.04,   783.0
 1307.43,   750.0
 1306.83,   747.0
 1306.22,   744.0
 1305.62,   743.0
 1305.01,   759.0
 1304.41,   765.0
 1303.80,   769.0
 1303.20,   780.0
 1302.59,   748.0
 1301.99,   769.0
 1301.38,   740.0
 1300.78,   760.0
 1300.17,   765.0
 1299.57,   755.0
 1298.96,   783.0
 1298.36,   777.0
 1297.75,   767.0
 1297.15,   775.0
 1296.54,   788.0
 1295.94,   765.0
 1295.33,   777.0
 1294.73,   794.0
 1294.12,   785.0
 1293.51,   750.0
 1292.91,   743.0
 1292.30,   749.0
 1291.70,   768.0
 1291.09,   774.0
 1290.49,   798.0
 1289.88,   780.0
 1289.27,   762.0
 1288.67,   750.0
 1288.06,   756.0
 1287.46,   759.0
 1286.85,   783.0
 1286.24,   785.0
 1285.64,   775.0
 1285.03,   774.0
 1284.43,   784.0
 1283.82,   827.0
 1283.21,   741.0
 1282.61,   802.0
 1282.00,   777.0
 1281.39,   795.0
 1280.79,   790.0
 1280.18,   782.0
 1279.57,   772.0
 1278.97,   813.0
 1278.36,   795.0
 1277.75,   807.0
 1277.15,   775.0
 1276.54,   774.0
 1275.93,   808.0
 1275.33,   819.0
 1274.72,   794.0
 1274.11,   800.0
 1273.50,   823.0
 1272.90,   798.0
 1272.29,   805.0
 1271.68,   814.0
 1271.07,   803.0
 1270.47,   790.0
 1269.86,   808.0
 1269.25,   816.0
 1268.65,   787.0
 1268.04,   798.0
 1267.43,   841.0
 1266.82,   810.0
 1266.22,   837.0
 1265.61,   822.0
 1265.00,   857.0
 1264.39,   828.0
 1263.78,   805.0
 1263.18,   834.0
 1262.57,   831.0
 1261.96,   834.0
 1261.35,   872.0
 1260.74,   821.0
 1260.14,   837.0
 1259.53,   829.0
 1258.92,   856.0
 1258.31,   844.0
 1257.70,   856.0
 1257.09,   868.0
 1256.49,   861.0
 1255.88,   845.0
 1255.27,   878.0
 1254.66,   862.0
 1254.05,   858.0
 1253.44,   866.0
 1252.83,   878.0
 1252.23,   913.0
 1251.62,   891.0
 1251.01,   891.0
 1250.40,   895.0
 1249.79,   886.0
 1249.18,   895.0
 1248.57,   898.0
 1247.96,   913.0
 1247.35,   912.0
 1246.74,   905.0
 1246.14,   919.0
 1245.53,   910.0
 1244.92,   926.0
 1244.31,   917.0
 1243.70,   940.0
 1243.09,   932.0
 1242.48,   945.0
 1241.87,   933.0
 1241.26,   975.0
 1240.65,   989.0
 1240.04,   953.0
 1239.43,   967.0
 1238.82,   979.0
 1238.21,   998.0
 1237.60,  1025.0
 1236.99,  1025.0
 1236.38,  1000.0
 1235.77,  1005.0
 1235.16,  1024.0
 1234.55,  1031.0
 1233.94,  1031.0
 1233.33,  1024.0
 1232.72,  1086.0
 1232.11,  1046.0
 1231.50,  1034.0
 1230.89,  1088.0
 1230.28,  1070.0
 1229.67,  1069.0
 1229.06,  1098.0
 1228.45,  1103.0
 1227.84,  1115.0
 1227.23,  1121.0
 1226.62,  1129.0
 1226.01,  1192.0
 1225.39,  1172.0
 1224.78,  1186.0
 1224.17,  1175.0
 1223.56,  1238.0
 1222.95,  1260.0
 1222.34,  1249.0
 1221.73,  1280.0
 1221.12,  1286.0
 1220.51,  1295.0
 1219.89,  1336.0
 1219.28,  1345.0
 1218.67,  1375.0
 1218.06,  1382.0
 1217.45,  1400.0
 1216.84,  1436.0
 1216.23,  1453.0
 1215.62,  1438.0
 1215.00,  1498.0
 1214.39,  1529.0
 1213.78,  1544.0
 1213.17,  1579.0
 1212.56,  1577.0
 1211.94,  1669.0
 1211.33,  1664.0
 1210.72,  1692.0
 1210.11,  1702.0
 1209.50,  1753.0
 1208.88,  1775.0
 1208.27,  1843.0
 1207.66,  1942.0
 1207.05,  1879.0
 1206.44,  1962.0
 1205.82,  1998.0
 1205.21,  2057.0
 1204.60,  2068.0
 1203.99,  2137.0
 1203.37,  2167.0
 1202.76,  2229.0
 1202.15,  2320.0
 1201.54,  2328.0
 1200.92,  2332.0
 1200.31,  2455.0
 1199.70,  2474.0
 1199.09,  2525.0
 1198.47,  2631.0
 1197.86,  2687.0
 1197.25,  2744.0
 1196.63,  2829.0
 1196.02,  2840.0
 1195.41,  2946.0
 1194.79,  3010.0
 1194.18,  3022.0
 1193.57,  3160.0
 1192.95,  3167.0
 1192.34,  3280.0
 1191.73,  3391.0
 1191.11,  3425.0
 1190.50,  3541.0
 1189.89,  3583.0
 1189.27,  3698.0
 1188.66,  3720.0
 1188.05,  3877.0
 1187.43,  3930.0
 1186.82,  4039.0
 1186.21,  4119.0
 1185.59,  4258.0
 1184.98,  4342.0
 1184.36,  4444.0
 1183.75,  4592.0
 1183.14,  4663.0
 1182.52,  4763.0
 1181.91,  4827.0
 1181.29,  5023.0
 1180.68,  5167.0
 1180.07,  5138.0
 1179.45,  5285.0
 1178.84,  5435.0
 1178.22,  5435.0
 1177.61,  5598.0
 1176.99,  5754.0
 1176.38,  5924.0
 1175.76,  6021.0
 1175.15,  6097.0
 1174.53,  6274.0
 1173.92,  6454.0
 1173.30,  6522.0
 1172.69,  6637.0
 1172.08,  6777.0
 1171.46,  6835.0
 1170.85,  7037.0
 1170.23,  7109.0
 1169.62,  7329.0
 1169.00,  7527.0
 1168.38,  7639.0
 1167.77,  7753.0
 1167.15,  7804.0
 1166.54,  8009.0
 1165.92,  8022.0
 1165.31,  8243.0
 1164.69,  8375.0
 1164.08,  8494.0
 1163.46,  8575.0
 1162.85,  8750.0
 1162.23,  8899.0
 1161.62,  8926.0
 1161.00,  9243.0
 1160.38,  9355.0
 1159.77,  9524.0
 1159.15,  9608.0
 1158.54,  9751.0
 1157.92,  9865.0
 1157.30,  9980.0
 1156.69, 10052.0
 1156.07, 10212.0
 1155.46, 10388.0
 1154.84, 10565.0
 1154.22, 10624.0
 1153.61, 10683.0
 1152.99, 10922.0
 1152.37, 10952.0
 1151.76, 11058.0
 1151.14, 11103.0
 1150.53, 11300.0
 1149.91, 11514.0
 1149.29, 11453.0
 1148.68, 11607.0
 1148.06, 11823.0
 1147.44, 11839.0
 1146.82, 12025.0
 1146.21, 12072.0
 1145.59, 12151.0
 1144.97, 12166.0
 1144.36, 12450.0
 1143.74, 12497.0
 1143.12, 12656.0
 1142.51, 12720.0
 1141.89, 12784.0
 1141.27, 12880.0
 1140.65, 12993.0
 1140.04, 12993.0
 1139.42, 13202.0
 1138.80, 13332.0
 1138.18, 13316.0
 1137.57, 13430.0
 1136.95, 13527.0
 1136.33, 13609.0
 1135.71, 13691.0
 1135.10, 13773.0
 1134.48, 13921.0
 1133.86, 13888.0
 1133.24, 14004.0
 1132.63, 14153.0
 1132.01, 14302.0
 1131.39, 14302.0
 1130.77, 14436.0
 1130.15, 14486.0
 1129.54, 14570.0
 1128.92, 14754.0
 1128.30, 14839.0
 1127.68, 14855.0
 1127.06, 14991.0
 1126.44, 15075.0
 1125.82, 15296.0
 1125.21, 15143.0
 1124.59, 15313.0
 1123.97, 15449.0
 1123.35, 15347.0
 1122.73, 15569.0
 1122.11, 15861.0
 1121.49, 15724.0
 1120.88, 15982.0
 1120.26, 15965.0
 1119.64, 16120.0
 1119.02, 16155.0
 1118.40, 16259.0
 1117.78, 16415.0
 1117.16, 16433.0
 1116.54, 16590.0
 1115.92, 16642.0
 1115.30, 16677.0
 1114.69, 16764.0
 1114.07, 16993.0
 1113.45, 17063.0
 1112.83, 17010.0
 1112.21, 17169.0
 1111.59, 17169.0
 1110.97, 17186.0
 1110.35, 17292.0
 1109.73, 17399.0
 1109.11, 17399.0
 1108.49, 17434.0
 1107.87, 17523.0
 1107.25, 17523.0
 1106.63, 17647.0
 1106.01, 17647.0
 1105.39, 17576.0
 1104.77, 17540.0
 1104.15, 17629.0
 1103.53, 17683.0
 1102.91, 17558.0
 1102.29, 17576.0
 1101.67, 17540.0
 1101.05, 17558.0
 1100.43, 17647.0
 1099.81, 17434.0
 1099.19, 17381.0
 1098.57, 17452.0
 1097.95, 17310.0
 1097.33, 17239.0
 1096.71, 17098.0
 1096.09, 16975.0
 1095.46, 16958.0
 1094.84, 16958.0
 1094.22, 16747.0
 1093.60, 16677.0
 1092.98, 16415.0
 1092.36, 16311.0
 1091.74, 16259.0
 1091.12, 16120.0
 1090.50, 15930.0
 1089.88, 15724.0
 1089.26, 15484.0
 1088.63, 15449.0
 1088.01, 15347.0
 1087.39, 15143.0
 1086.77, 15024.0
 1086.15, 14805.0
 1085.53, 14603.0
 1084.91, 14319.0
 1084.28, 14169.0
 1083.66, 14037.0
 1083.04, 13707.0
 1082.42, 13691.0
 1081.80, 13430.0
 1081.17, 13089.0
 1080.55, 13057.0
 1079.93, 12832.0
 1079.31, 12704.0
 1078.69, 12529.0
 1078.07, 12324.0
 1077.44, 12025.0
 1076.82, 11901.0
 1076.20, 11715.0
 1075.58, 11576.0
 1074.95, 11164.0
 1074.33, 11043.0
 1073.71, 10817.0
 1073.09, 10728.0
 1072.46, 10491.0
 1071.84, 10256.0
 1071.22, 10110.0
 1070.60,  9894.0
 1069.97,  9793.0
 1069.35,  9538.0
 1068.73,  9369.0
 1068.11,  9257.0
 1067.48,  9091.0
 1066.86,  8913.0
 1066.24,  8763.0
 1065.61,  8642.0
 1064.99,  8454.0
 1064.37,  8230.0
 1063.74,  8113.0
 1063.12,  7944.0
 1062.50,  7740.0
 1061.87,  7552.0
 1061.25,  7527.0
 1060.63,  7267.0
 1060.00,  7206.0
 1059.38,  7109.0
 1058.76,  6824.0
 1058.13,  6788.0
 1057.51,  6660.0
 1056.89,  6465.0
 1056.26,  6375.0
 1055.64,  6218.0
 1055.02,  6097.0
 1054.39,  5977.0
 1053.77,  5849.0
 1053.14,  5691.0
 1052.52,  5691.0
 1051.90,  5505.0
 1051.27,  5374.0
 1050.65,  5364.0
 1050.02,  5265.0
 1049.40,  5109.0
 1048.77,  5061.0
 1048.15,  4882.0
 1047.53,  4753.0
 1046.90,  4681.0
 1046.28,  4663.0
 1045.65,  4601.0
 1045.03,  4392.0
 1044.40,  4418.0
 1043.78,  4291.0
 1043.15,  4184.0
 1042.53,  4063.0
 1041.90,  4055.0
 1041.28,  3961.0
 1040.65,  3892.0
 1040.03,  3816.0
 1039.40,  3713.0
 1038.78,  3698.0
 1038.15,  3633.0
 1037.53,  3521.0
 1036.90,  3486.0
 1036.28,  3432.0
 1035.65,  3358.0
 1035.03,  3255.0
 1034.40,  3267.0
 1033.78,  3204.0
 1033.15,  3154.0
 1032.53,  3093.0
 1031.90,  3045.0
 1031.27,  3010.0
 1030.65,  3022.0
 1030.02,  2879.0
 1029.40,  2901.0
 1028.77,  2829.0
 1028.15,  2819.0
 1027.52,  2754.0
 1026.89,  2713.0
 1026.27,  2682.0
 1025.64,  2672.0
 1025.02,  2612.0
 1024.39,  2587.0
 1023.76,  2492.0
 1023.14,  2515.0
 1022.51,  2455.0
 1021.88,  2478.0
 1021.26,  2397.0
 1020.63,  2397.0
 1020.01,  2397.0
 1019.38,  2328.0
 1018.75,  2332.0
 1018.13,  2332.0
 1017.50,  2294.0
 1016.87,  2229.0
 1016.25,  2294.0
 1015.62,  2167.0
 1014.99,  2198.0
 1014.36,  2214.0
 1013.74,  2126.0
 1013.11,  2144.0
 1012.48,  2096.0
 1011.86,  2129.0
 1011.23,  2053.0
 1010.60,  2078.0
 1009.97,  2071.0
 1009.35,  1995.0
 1008.72,  1952.0
 1008.09,  2012.0
 1007.47,  1945.0
 1006.84,  2008.0
 1006.21,  1968.0
 1005.58,  1981.0
 1004.96,  1945.0
 1004.33,  1926.0
 1003.70,  1945.0
 1003.07,  1968.0
 1002.44,  1942.0
 1001.82,  1923.0
 1001.19,  1873.0
 1000.56,  1907.0
  999.93,  1870.0
  999.30,  1861.0
  998.68,  1879.0
  998.05,  1826.0
  997.42,  1843.0
  996.79,  1826.0
  996.16,  1814.0
  995.53,  1829.0
  994.91,  1834.0
  994.28,  1805.0
  993.65,  1834.0
  993.02,  1797.0
  992.39,  1797.0
  991.76,  1797.0
  991.13,  1780.0
  990.51,  1766.0
  989.88,  1772.0
  989.25,  1788.0
  988.62,  1772.0
  987.99,  1783.0
  987.36,  1758.0
  986.73,  1710.0
  986.10,  1736.0
  985.47,  1721.0
  984.85,  1753.0
  984.22,  1710.0
  983.59,  1697.0
  982.96,  1684.0
  982.33,  1692.0
  981.70,  1723.0
  981.07,  1657.0
  980.44,  1684.0
  979.81,  1645.0
  979.18,  1652.0
  978.55,  1645.0
  977.92,  1677.0
  977.29,  1677.0
  976.66,  1645.0
  976.03,  1674.0
  975.40,  1614.0
  974.77,  1607.0
  974.14,  1593.0
  973.51,  1584.0
  972.88,  1593.0
  972.25,  1582.0
  971.62,  1584.0
  970.99,  1568.0
  970.36,  1577.0
  969.73,  1523.0
  969.10,  1557.0
  968.47,  1542.0
  967.84,  1575.0
  967.21,  1525.0
  966.58,  1546.0
  965.95,  1549.0
  965.32,  1532.0
  964.69,  1492.0
  964.06,  1502.0
  963.42,  1529.0
  962.79,  1517.0
  962.16,  1500.0
  961.53,  1474.0
  960.90,  1517.0
  960.27,  1513.0
  959.64,  1509.0
  959.01,  1459.0
  958.38,  1478.0
  957.74,  1527.0
  957.11,  1490.0
  956.48,  1469.0
  955.85,  1467.0
  955.22,  1500.0
  954.59,  1407.0
  953.96,  1438.0
  953.33,  1463.0
  952.69,  1429.0
  952.06,  1467.0
  951.43,  1444.0
  950.80,  1434.0
  950.17,  1455.0
  949.53,  1440.0
  948.90,  1474.0
  948.27,  1429.0
  947.64,  1449.0
  947.01,  1444.0
  946.37,  1431.0
  945.74,  1414.0
  945.11,  1431.0
  944.48,  1446.0
  943.85,  1420.0
  943.21,  1416.0
  942.58,  1444.0
  941.95,  1400.0
  941.32,  1365.0
  940.68,  1388.0
  940.05,  1402.0
  939.42,  1375.0
  938.79,  1374.0
  938.15,  1341.0
  937.52,  1347.0
  936.89,  1374.0
  936.25,  1352.0
  935.62,  1345.0
  934.99,  1309.0
  934.35,  1283.0
  933.72,  1320.0
  933.09,  1283.0
  932.46,  1283.0
  931.82,  1285.0
  931.19,  1249.0
  930.56,  1272.0
  929.92,  1206.0
  929.29,  1192.0
  928.66,  1178.0
  928.02,  1221.0
  927.39,  1172.0
  926.75,  1195.0
  926.12,  1177.0
  925.49,  1166.0
  924.85,  1187.0
  924.22,  1121.0
  923.59,  1118.0
  922.95,  1120.0
  922.32,  1114.0
  921.68,  1113.0
  921.05,  1107.0
  920.42,  1070.0
  919.78,  1072.0
  919.15,  1062.0
  918.51,  1056.0
  917.88,  1086.0
  917.24,  1054.0
  916.61,  1078.0
  915.98,  1046.0
  915.34,  1056.0
  914.71,  1056.0
  914.07,  1039.0
  913.44,  1009.0
  912.80,  1036.0
  912.17,  1017.0
  911.53,  1020.0
  910.90,  1011.0
  910.26,  1018.0
  909.63,   989.0
  908.99,  1001.0
  908.36,  1004.0
  907.72,   992.0
  907.09,   999.0
  906.45,   985.0
  905.82,   968.0
  905.18,   994.0
  904.55,   982.0
  903.91,   959.0
  903.28,   977.0
  902.64,   949.0
  902.01,   958.0
  901.37,   970.0
  900.74,   947.0
  900.10,   938.0
  899.46,   945.0
  898.83,   924.0
  898.19,   962.0
  897.56,   971.0
  896.92,   930.0
  896.28,   927.0
  895.65,   928.0
  895.01,   924.0
  894.38,   947.0
  893.74,   911.0
  893.10,   933.0
  892.47,   917.0
  891.83,   936.0
  891.20,   908.0
  890.56,   930.0
  889.92,   919.0
  889.29,   883.0
  888.65,   959.0
  888.01,   919.0
  887.38,   910.0
  886.74,   941.0
  886.10,   920.0
  885.47,   919.0
  884.83,   891.0
  884.19,   908.0
  883.56,   914.0
  882.92,   889.0
  882.28,   893.0
  881.64,   931.0
  881.01,   897.0
  880.37,   894.0
  879.73,   907.0
  879.10,   889.0
  878.46,   907.0
  877.82,   894.0
  877.18,   904.0
  876.55,   891.0
  875.91,   952.0
  875.27,   901.0
  874.63,   886.0
  874.00,   889.0
  873.36,   861.0
  872.72,   905.0
  872.08,   887.0
  871.45,   898.0
  870.81,   918.0
  870.17,   919.3
  869.53,   900.6
  868.89,   912.6
  868.26,   949.0
  867.62,   925.4
  866.98,   935.2
  866.34,   944.1
  865.70,   963.0
  865.06,   951.3
  864.43,   946.8
  863.79,   961.2
  863.15,   961.9
  862.51,   952.9
  861.87,   966.0
  861.23,   964.9
  860.59,  1004.1
  859.96,   991.1
  859.32,   994.6
  858.68,   996.5
  858.04,  1012.2
  857.40,   993.1
  856.76,  1022.4
  856.12,  1010.7
  855.48,  1036.6
  854.84,  1031.0
  854.21,  1049.2
  853.57,  1053.2
  852.93,  1079.6
  852.29,  1041.0
  851.65,  1063.2
  851.01,  1079.0
  850.37,  1070.5
  849.73,  1080.8
  849.09,  1107.9
  848.45,  1116.6
  847.81,  1096.7
  847.17,  1084.7
  846.53,  1086.3
  845.89,  1144.4
  845.25,  1135.6
  844.61,  1138.6
  843.97,  1154.4
  843.33,  1173.7
  842.69,  1139.0
  842.05,  1171.4
  841.41,  1183.4
  840.77,  1206.7
  840.13,  1202.9
  839.49,  1211.9
  840.22,  1215.0
  839.59,  1238.0
  838.95,  1235.0
  838.31,  1241.0
  837.68,  1263.0
  837.04,  1263.0
  836.40,  1265.0
  835.77,  1285.0
  835.13,  1273.0
  834.49,  1267.0
  833.86,  1285.0
  833.22,  1288.0
  832.58,  1306.0
  831.94,  1345.0
  831.31,  1320.0
  830.67,  1345.0
  830.03,  1364.0
  829.39,  1389.0
  828.76,  1379.0
  828.12,  1393.0
  827.48,  1405.0
  826.84,  1431.0
  826.21,  1429.0
  825.57,  1476.0
  824.93,  1470.0
  824.29,  1444.0
  823.65,  1511.0
  823.02,  1494.0
  822.38,  1511.0
  821.74,  1525.0
  821.10,  1575.0
  820.46,  1612.0
  819.83,  1579.0
  819.19,  1609.0
  818.55,  1598.0
  817.91,  1662.0
  817.27,  1652.0
  816.63,  1650.0
  816.00,  1679.0
  815.36,  1705.0
  814.72,  1692.0
  814.08,  1797.0
  813.44,  1803.0
  812.80,  1797.0
  812.16,  1775.0
  811.52,  1826.0
  810.88,  1808.0
  810.25,  1867.0
  809.61,  1843.0
  808.97,  1968.0
  808.33,  1898.0
  807.69,  1958.0
  807.05,  1942.0
  806.41,  1958.0
  805.77,  1962.0
  805.13,  1968.0
  804.49,  2043.0
  803.85,  1998.0
  803.21,  2029.0
  802.57,  2050.0
  801.94,  2068.0
  801.30,  2089.0
  800.66,  2100.0
  800.02,  2089.0
  799.38,  2118.0
  798.74,  2167.0
  798.10,  2202.0
  797.46,  2171.0
  796.82,  2190.0
  796.18,  2198.0
  795.54,  2241.0
  794.90,  2237.0
  794.26,  2254.0
  793.62,  2250.0
  792.97,  2294.0
  792.33,  2270.0
  791.69,  2294.0
  791.05,  2328.0
  790.41,  2375.0
  789.77,  2303.0
  789.13,  2367.0
  788.49,  2388.0
  787.85,  2384.0
  787.21,  2375.0
  786.57,  2433.0
  785.93,  2371.0
  785.29,  2433.0
  784.65,  2397.0
  784.00,  2455.0
  783.36,  2415.0
  782.72,  2437.0
  782.08,  2469.0
  781.44,  2501.0
  780.80,  2451.0
  780.16,  2483.0
  779.52,  2410.0
  778.87,  2506.0
  778.23,  2520.0
  777.59,  2506.0
  776.95,  2474.0
  776.31,  2525.0
  775.67,  2515.0
  775.03,  2506.0
  774.38,  2530.0
  773.74,  2544.0
  773.10,  2568.0
  772.46,  2534.0
  771.82,  2530.0
  771.17,  2525.0
  770.53,  2544.0
  769.89,  2515.0
  769.25,  2520.0
  768.60,  2525.0
  767.96,  2568.0
  767.32,  2582.0
  766.68,  2506.0
  766.04,  2515.0
  765.39,  2511.0
  764.75,  2506.0
  764.11,  2506.0
  763.46,  2582.0
  762.82,  2544.0
  762.18,  2525.0
  761.54,  2506.0
  760.89,  2474.0
  760.25,  2487.0
  759.61,  2478.0
  758.96,  2474.0
  758.32,  2446.0
  757.68,  2506.0
  757.04,  2506.0
  756.39,  2544.0
  755.75,  2455.0
  755.11,  2437.0
  754.46,  2406.0
  753.82,  2437.0
  753.18,  2380.0
  752.53,  2442.0
  751.89,  2415.0
  751.24,  2415.0
  750.60,  2375.0
  749.96,  2415.0
  749.31,  2362.0
  748.67,  2367.0
  748.03,  2362.0
  747.38,  2324.0
  746.74,  2336.0
  746.09,  2332.0
  745.45,  2336.0
  744.81,  2294.0
  744.16,  2332.0
  743.52,  2294.0
  742.87,  2307.0
  742.23,  2266.0
  741.58,  2286.0
  740.94,  2294.0
  740.30,  2294.0
  739.65,  2210.0
  739.01,  2286.0
  738.36,  2229.0
  737.72,  2233.0
  737.07,  2202.0
  736.43,  2241.0
  735.78,  2254.0
  735.14,  2206.0
  734.49,  2167.0
  733.85,  2210.0
  733.20,  2171.0
  732.56,  2179.0
  731.91,  2206.0
  731.27,  2167.0
  730.62,  2210.0
  729.98,  2214.0
  729.33,  2198.0
  728.69,  2171.0
  728.04,  2229.0
  727.40,  2229.0
  726.75,  2148.0
  726.10,  2202.0
  725.46,  2186.0
  724.81,  2179.0
  724.17,  2182.0
  723.52,  2198.0
  722.88,  2167.0
  722.23,  2206.0
  721.58,  2186.0
  720.94,  2206.0
  720.29,  2266.0
  719.65,  2186.0
  719.00,  2214.0
  718.35,  2198.0
  717.71,  2245.0
  717.06,  2229.0
  716.42,  2206.0
  715.77,  2266.0
  715.12,  2262.0
  714.48,  2294.0
  713.83,  2233.0
  713.18,  2218.0
  712.54,  2258.0
  711.89,  2311.0
  711.24,  2336.0
  710.60,  2328.0
  709.95,  2328.0
  709.30,  2332.0
  708.66,  2341.0
  708.01,  2332.0
  707.36,  2328.0
  706.71,  2401.0
  706.07,  2332.0
  705.42,  2375.0
  704.77,  2371.0
  704.13,  2375.0
  703.48,  2397.0
  702.83,  2433.0
  702.18,  2437.0
  701.54,  2446.0
  700.89,  2410.0
  700.24,  2474.0
  699.59,  2487.0
  698.94,  2492.0
  698.30,  2483.0
  697.65,  2492.0
  697.00,  2469.0
  696.35,  2549.0
  695.71,  2582.0
  695.06,  2582.0
  694.41,  2582.0
  693.76,  2597.0
  693.11,  2582.0
  692.47,  2622.0
  691.82,  2636.0
  691.17,  2592.0
  690.52,  2662.0
  689.87,  2672.0
  689.22,  2713.0
  688.58,  2702.0
  687.93,  2718.0
  687.28,  2765.0
  686.63,  2749.0
  685.98,  2733.0
  685.33,  2786.0
  684.68,  2802.0
  684.03,  2802.0
  683.39,  2851.0
  682.74,  2873.0
  682.09,  2890.0
  681.44,  2935.0
  680.79,  2935.0
  680.14,  2935.0
  679.49,  2964.0
  678.84,  2952.0
  678.19,  2964.0
  677.54,  2993.0
  676.89,  3010.0
  676.24,  2981.0
  675.59,  3057.0
  674.94,  3034.0
  674.29,  3010.0
  673.65,  3075.0
  673.00,  3105.0
  672.35,  3069.0
  671.70,  3117.0
  671.05,  3124.0
  670.40,  3173.0
  669.75,  3204.0
  669.10,  3223.0
  668.45,  3179.0
  667.80,  3204.0
  667.15,  3191.0
  666.50,  3248.0
  665.84,  3326.0
  665.19,  3312.0
  664.54,  3345.0
  663.89,  3391.0
  663.24,  3438.0
  662.59,  3452.0
  661.94,  3412.0
  661.29,  3432.0
  660.64,  3425.0
  659.99,  3521.0
  659.34,  3541.0
  658.69,  3541.0
  658.04,  3555.0
  657.39,  3612.0
  656.74,  3633.0
  656.08,  3683.0
  655.43,  3583.0
  654.78,  3705.0
  654.13,  3749.0
  653.48,  3727.0
  652.83,  3713.0
  652.18,  3801.0
  651.53,  3869.0
  650.87,  3771.0
  650.22,  3938.0
  649.57,  3938.0
  648.92,  3992.0
  648.27,  4016.0
  647.62,  3992.0
  646.96,  4039.0
  646.31,  4031.0
  645.66,  4176.0
  645.01,  4079.0
  644.36,  4184.0
  643.70,  4233.0
  643.05,  4275.0
  642.40,  4275.0
  641.75,  4350.0
  641.10,  4401.0
  640.44,  4392.0
  639.79,  4530.0
  639.14,  4530.0
  638.49,  4557.0
  637.83,  4601.0
  637.18,  4672.0
  636.53,  4735.0
  635.88,  4744.0
  635.22,  4753.0
  634.57,  4817.0
  633.92,  4882.0
  633.26,  4919.0
  632.61,  5014.0
  631.96,  5033.0
  631.31,  5109.0
  630.65,  5206.0
  630.00,  5158.0
  629.35,  5314.0
  628.69,  5305.0
  628.04,  5394.0
  627.39,  5455.0
  626.73,  5536.0
  626.08,  5505.0
  625.43,  5670.0
  624.77,  5681.0
  624.12,  5838.0
  623.47,  5807.0
  622.81,  5924.0
  622.16,  6021.0
  621.51,  6010.0
  620.85,  6042.0
  620.20,  6108.0
  619.54,  6240.0
  618.89,  6363.0
  618.24,  6511.0
  617.58,  6522.0
  616.93,  6649.0
  616.27,  6672.0
  615.62,  6824.0
  614.96,  6883.0
  614.31,  6942.0
  613.66,  7085.0
  613.00,  7049.0
  612.35,  7304.0
  611.69,  7402.0
  611.04,  7464.0
  610.38,  7614.0
  609.73,  7817.0
  609.07,  7842.0
  608.42,  7893.0
  607.76,  8009.0
  607.11,  8126.0
  606.45,  8217.0
  605.80,  8348.0
  605.14,  8362.0
  604.49,  8508.0
  603.83,  8669.0
  603.18,  8790.0
  602.52,  8872.0
  601.87,  8995.0
  601.21,  9105.0
  600.56,  9230.0
  599.90,  9299.0
  599.25,  9425.0
  598.59,  9524.0
  597.93,  9524.0
  597.28,  9566.0
  596.62,  9566.0
  595.97,  9779.0
  595.31,  9808.0
  594.66,  9765.0
  594.00,  9779.0
  593.34,  9822.0
  592.69,  9879.0
  592.03,  9822.0
  591.38,  9894.0
  590.72,  9836.0
  590.06,  9879.0
  589.41,  9751.0
  588.75,  9793.0
  588.09,  9524.0
  587.44,  9594.0
  586.78,  9524.0
  586.13,  9425.0
  585.47,  9383.0
  584.81,  9383.0
  584.16,  9341.0
  583.50,  9230.0
  582.84,  9091.0
  582.18,  9077.0
  581.53,  9050.0
  580.87,  8981.0
  580.21,  8926.0
  579.56,  8763.0
  578.90,  8858.0
  578.24,  8763.0
  577.59,  8763.0
  576.93,  8736.0
  576.27,  8682.0
  575.61,  8750.0
  574.96,  8642.0
  574.30,  8642.0
  573.64,  8669.0
  572.98,  8575.0
  572.33,  8709.0
  571.67,  8709.0
  571.01,  8682.0
  570.35,  8695.0
  569.70,  8750.0
  569.04,  8777.0
  568.38,  8763.0
  567.72,  8858.0
  567.06,  8858.0
  566.40,  8899.0
  565.75,  8885.0
  565.09,  9022.0
  564.43,  8967.0
  563.77,  9188.0
  563.11,  9119.0
  562.46,  9077.0
  561.80,  9216.0
  561.14,  9299.0
  560.48,  9299.0
  559.82,  9369.0
  559.16,  9341.0
  558.50,  9481.0
  557.85,  9481.0
  557.19,  9651.0
  556.53,  9694.0
  555.87,  9808.0
  555.21,  9894.0
  554.55,  9894.0
  553.89, 10052.0
  553.23, 10096.0
  552.57, 10212.0
  551.91, 10256.0
  551.25, 10417.0
  550.60, 10506.0
  549.94, 10683.0
  549.28, 10683.0
  548.62, 10862.0
  547.96, 10937.0
  547.30, 11043.0
  546.64, 11194.0
  545.98, 11331.0
  545.32, 11453.0
  544.66, 11407.0
  544.00, 11653.0
  543.34, 11668.0
  542.68, 11777.0
  542.02, 11932.0
  541.36, 12198.0
  540.70, 12166.0
  540.04, 12276.0
  539.38, 12466.0
  538.72, 12450.0
  538.06, 12656.0
  537.40, 12672.0
  536.74, 12928.0
  536.08, 13122.0
  535.42, 13219.0
  534.76, 13202.0
  534.10, 13413.0
  533.44, 13511.0
  532.77, 13757.0
  532.11, 13707.0
  531.45, 13905.0
  530.79, 13773.0
  530.13, 13954.0
  529.47, 14236.0
  528.81, 14153.0
  528.15, 14219.0
  527.49, 14219.0
  526.83, 14087.0
  526.16, 14236.0
  525.50, 14253.0
  524.84, 14253.0
  524.18, 14369.0
  523.52, 14369.0
  522.86, 14286.0
  522.20, 14236.0
  521.53, 14219.0
  520.87, 14336.0
  520.21, 14402.0
  519.55, 14219.0
  518.89, 14053.0
  518.23, 14087.0
  517.56, 14087.0
  516.90, 13822.0
  516.24, 13954.0
  515.58, 13691.0
  514.92, 13576.0
  514.25, 13462.0
  513.59, 13348.0
  512.93, 13251.0
  512.27, 13267.0
  511.60, 12977.0
  510.94, 12960.0
  510.28, 12912.0
  509.62, 12784.0
  508.95, 12688.0
  508.29, 12482.0
  507.63, 12434.0
  506.97, 12324.0
  506.30, 12213.0
  505.64, 12072.0
  504.98, 11979.0
  504.31, 11839.0
  503.65, 11901.0
  502.99, 11792.0
  502.33, 11668.0
  501.66, 11530.0
  501.00, 11468.0
  500.34, 11285.0
  499.67, 11300.0
  499.01, 11209.0
  498.35, 11164.0
  497.68, 11164.0
  497.02, 11043.0
  496.36, 10952.0
  495.69, 10832.0
  495.03, 10758.0
  494.36, 10713.0
  493.70, 10609.0
  493.04, 10506.0
  492.37, 10550.0
  491.71, 10535.0
  491.04, 10373.0
  490.38, 10344.0
  489.72, 10256.0
  489.05, 10168.0
  488.39, 10081.0
  487.72, 10023.0
  487.06, 10038.0
  486.40,  9980.0
  485.73,  9923.0
  485.07,  9751.0
  484.40,  9779.0
  483.74,  9765.0
  483.07,  9694.0
  482.41,  9679.0
  481.74,  9538.0
  481.08,  9524.0
  480.41,  9524.0
  479.75,  9313.0
  479.08,  9341.0
  478.42,  9257.0
  477.75,  9216.0
  477.09,  9188.0
  476.42,  9160.0
  475.76,  9188.0
  475.09,  8981.0
  474.43,  8995.0
  473.76,  8995.0
  473.10,  8967.0
  472.43,  8926.0
  471.77,  8872.0
  471.10,  8967.0
  470.44,  8858.0
  469.77,  8858.0
  469.10,  8682.0
  468.44,  8709.0
  467.77,  8790.0
  467.11,  8642.0
  466.44,  8575.0
  465.77,  8642.0
  465.11,  8601.0
  464.44,  8494.0
  463.78,  8601.0
  463.11,  8494.0
  462.44,  8428.0
  461.78,  8428.0
  461.11,  8428.0
  460.45,  8575.0
  459.78,  8375.0
  459.11,  8348.0
  458.45,  8428.0
  457.78,  8322.0
  457.11,  8296.0
  456.45,  8283.0
  455.78,  8269.0
  455.11,  8217.0
  454.45,  8152.0
  453.78,  8191.0
  453.11,  8048.0
  452.44,  8035.0
  451.78,  8152.0
  451.11,  8048.0
  450.44,  8113.0
  449.78,  8035.0
  449.11,  8100.0
  448.44,  8009.0
  447.77,  7970.0
  447.11,  7906.0
  446.44,  7919.0
  445.77,  7880.0
  445.10,  8009.0
  444.44,  7906.0
  443.77,  7817.0
  443.10,  7855.0
  442.43,  7817.0
  441.77,  7778.0
  441.10,  7778.0
  440.43,  7804.0
  439.76,  7778.0
  439.09,  7766.0
  438.43,  7639.0
  437.76,  7627.0
  437.09,  7602.0
  436.42,  7740.0
  435.75,  7614.0
  435.08,  7552.0
  434.42,  7652.0
  433.75,  7602.0
  433.08,  7514.0
  432.41,  7539.0
  431.74,  7564.0
  431.07,  7564.0
  430.40,  7464.0
  429.74,  7440.0
  429.07,  7452.0
  428.40,  7489.0
  427.73,  7365.0
  427.06,  7502.0
  426.39,  7427.0
  425.72,  7402.0
  425.05,  7427.0
  424.38,  7365.0
  423.71,  7341.0
  423.04,  7365.0
  422.38,  7267.0
  421.71,  7219.0
  421.04,  7304.0
  420.37,  7267.0
  419.70,  7231.0
  419.03,  7206.0
  418.36,  7255.0
  417.69,  7146.0
  417.02,  7061.0
  416.35,  7122.0
  415.68,  7146.0
  415.01,  7025.0
  414.34,  7061.0
  413.67,  7109.0
  413.00,  7013.0
  412.33,  7049.0
  411.66,  7013.0
  410.99,  7049.0
  410.32,  7025.0
  409.65,  7025.0
  408.98,  7013.0
  408.31,  6871.0
  407.64,  6894.0
  406.97,  6918.0
  406.30,  6954.0
  405.62,  6871.0
  404.95,  6930.0
  404.28,  6906.0
  403.61,  6918.0
  402.94,  6824.0
  402.27,  6918.0
  401.60,  6812.0
  400.93,  6777.0
  400.26,  6765.0
  399.59,  6765.0
  398.92,  6742.0
  398.24,  6765.0
  397.57,  6730.0
  396.90,  6695.0
  396.23,  6777.0
  395.56,  6637.0
  394.89,  6695.0
  394.22,  6637.0
  393.54,  6777.0
  392.87,  6672.0
  392.20,  6545.0
  391.53,  6637.0
  390.86,  6568.0
  390.18,  6602.0
  389.51,  6683.0
  388.84,  6614.0
  388.17,  6556.0
  387.50,  6579.0
  386.82,  6568.0
  386.15,  6637.0
  385.48,  6568.0
  384.81,  6545.0
  384.14,  6476.0
  383.46,  6568.0
  382.79,  6545.0
  382.12,  6511.0
  381.45,  6499.0
  380.77,  6465.0
  380.10,  6454.0
  379.43,  6454.0
  378.75,  6488.0
  378.08,  6454.0
  377.41,  6307.0
  376.74,  6420.0
  376.06,  6386.0
  375.39,  6330.0
  374.72,  6375.0
  374.04,  6274.0
  373.37,  6375.0
  372.70,  6352.0
  372.02,  6285.0
  371.35,  6397.0
  370.68,  6296.0
  370.00,  6285.0
  369.33,  6274.0
  368.66,  6375.0
  367.98,  6285.0
  367.31,  6251.0
  366.64,  6285.0
  365.96,  6296.0
  365.29,  6274.0
  364.61,  6274.0
  363.94,  6185.0
  363.27,  6207.0
  362.59,  6274.0
  361.92,  6163.0
  361.24,  6274.0
  360.57,  6196.0
  359.90,  6163.0
  359.22,  6218.0
  358.55,  6185.0
  357.87,  6185.0
  357.20,  6119.0
  356.52,  6141.0
  355.85,  6152.0
  355.17,  6119.0
  354.50,  6196.0
  353.83,  6108.0
  353.15,  6174.0
  352.48,  6042.0
  351.80,  6097.0
  351.13,  6021.0
  350.45,  6174.0
  349.78,  6021.0
  349.10,  6119.0
  348.43,  6097.0
  347.75,  5956.0
  347.08,  6021.0
  346.40,  6064.0
  345.72,  6042.0
  345.05,  6032.0
  344.37,  6042.0
  343.70,  5977.0
  343.02,  5956.0
  342.35,  6010.0
  341.67,  5956.0
  341.00,  6032.0
  340.32,  5945.0
  339.64,  5967.0
  338.97,  5870.0
  338.29,  5956.0
  337.62,  5860.0
  336.94,  5956.0
  336.26,  5956.0
  335.59,  5956.0
  334.91,  5817.0
  334.24,  5956.0
  333.56,  5934.0
  332.88,  5924.0
  332.21,  5849.0
  331.53,  5934.0
  330.85,  5860.0
  330.18,  5892.0
  329.50,  5849.0
  328.82,  5924.0
  328.15,  5924.0
  327.47,  5892.0
  326.79,  5838.0
  326.12,  5967.0
  325.44,  5934.0
  324.76,  5924.0
  324.09,  5892.0
  323.41,  5945.0
  322.73,  5870.0
  322.05,  5860.0
  321.38,  5828.0
  320.70,  5870.0
  320.02,  5870.0
  319.34,  5892.0
  318.67,  5870.0
  317.99,  5881.0
  317.31,  5860.0
  316.63,  5817.0
  315.96,  5828.0
  315.28,  5838.0
  314.60,  5817.0
  313.92,  5775.0
  313.25,  5754.0
  312.57,  5817.0
  311.89,  5860.0
  311.21,  5838.0
  310.53,  5754.0
  309.86,  5807.0
  309.18,  5754.0
  308.50,  5838.0
  307.82,  5785.0
  307.14,  5754.0
  306.46,  5796.0
  305.79,  5754.0
  305.11,  5754.0
  304.43,  5712.0
  303.75,  5754.0
  303.07,  5754.0
  302.39,  5754.0
  301.71,  5764.0
  301.03,  5754.0
  300.36,  5681.0
  299.68,  5701.0
  299.00,  5681.0
  298.32,  5722.0
  297.64,  5712.0
  296.96,  5754.0
  296.28,  5681.0
  295.60,  5712.0
  294.92,  5681.0
  294.24,  5670.0
  293.56,  5701.0
  292.88,  5608.0
  292.20,  5536.0
  291.52,  5670.0
  290.85,  5629.0
  290.17,  5639.0
  289.49,  5608.0
  288.81,  5546.0
  288.13,  5618.0
  287.45,  5629.0
  286.77,  5629.0
  286.09,  5598.0
  285.41,  5649.0
  284.73,  5587.0
  284.05,  5660.0
  283.37,  5567.0
  282.69,  5587.0
  282.01,  5587.0
  281.32,  5618.0
  280.64,  5587.0
  279.96,  5587.0
  279.28,  5598.0
  278.60,  5587.0
  277.92,  5526.0
  277.24,  5546.0
  276.56,  5536.0
  275.88,  5516.0
  275.20,  5567.0
  274.52,  5455.0
  273.84,  5505.0
  273.16,  5536.0
  272.47,  5516.0
  271.79,  5516.0
  271.11,  5455.0
  270.43,  5485.0
  269.75,  5445.0
  269.07,  5424.0
  268.39,  5455.0
  267.71,  5475.0
  267.02,  5475.0
  266.34,  5505.0
  265.66,  5536.0
  264.98,  5485.0
  264.30,  5505.0
  263.62,  5475.0
  262.93,  5445.0
  262.25,  5424.0
  261.57,  5364.0
  260.89,  5424.0
  260.21,  5394.0
  259.52,  5435.0
  258.84,  5546.0
  258.16,  5424.0
  257.48,  5374.0
  256.79,  5424.0
  256.11,  5455.0
  255.43,  5435.0
  254.75,  5435.0
  254.07,  5455.0
  253.38,  5424.0
  252.70,  5424.0
  252.02,  5374.0
  251.33,  5475.0
  250.65,  5404.0
  249.97,  5424.0
  249.29,  5424.0
  248.60,  5424.0
  247.92,  5424.0
  247.24,  5424.0
  246.55,  5435.0
  245.87,  5424.0
  245.19,  5354.0
  244.50,  5364.0
  243.82,  5424.0
  243.14,  5364.0
  242.45,  5435.0
  241.77,  5435.0
  241.09,  5394.0
  240.40,  5455.0
  239.72,  5424.0
  239.04,  5435.0
  238.35,  5505.0
  237.67,  5394.0
  236.98,  5374.0
  236.30,  5465.0
  235.62,  5445.0
  234.93,  5485.0
  234.25,  5445.0
  233.57,  5435.0
  232.88,  5435.0
  232.20,  5424.0
  231.51,  5435.0
  230.83,  5475.0
  230.14,  5424.0
  229.46,  5475.0
  228.77,  5384.0
  228.09,  5505.0
  227.41,  5435.0
  226.72,  5485.0
  226.04,  5394.0
  225.35,  5455.0
  224.67,  5475.0
  223.98,  5475.0
  223.30,  5475.0
  222.61,  5445.0
  221.93,  5587.0
  221.24,  5505.0
  220.56,  5505.0
  219.87,  5516.0
  219.19,  5557.0
  218.50,  5505.0
  217.82,  5536.0
  217.13,  5598.0
  216.44,  5475.0
  215.76,  5526.0
  215.07,  5526.0
  214.39,  5546.0
  213.70,  5557.0
  213.02,  5516.0
  212.33,  5505.0
  211.64,  5505.0
  210.96,  5455.0
  210.27,  5557.0
  209.59,  5587.0
  208.90,  5557.0
  208.21,  5587.0
  207.53,  5526.0
  206.84,  5526.0
  206.16,  5557.0
  205.47,  5516.0
  204.78,  5587.0
  204.10,  5536.0
  203.41,  5598.0
  202.72,  5608.0
  202.04,  5608.0
  201.35,  5608.0
  200.66,  5587.0
  199.98,  5608.0
  199.29,  5587.0
