 1467.21,   577.0
 1466.61,   589.0
 1466.02,   582.0
 1465.43,   601.0
 1464.84,   589.0
 1464.25,   589.0
 1463.65,   570.0
 1463.06,   564.0
 1462.47,   580.0
 1461.87,   586.0
 1461.28,   587.0
 1460.69,   599.0
 1460.10,   566.0
 1459.50,   589.0
 1458.91,   589.0
 1458.32,   602.0
 1457.72,   586.0
 1457.13,   561.0
 1456.54,   574.0
 1455.95,   568.0
 1455.35,   590.0
 1454.76,   570.0
 1454.17,   570.0
 1453.57,   561.0
 1452.98,   576.0
 1452.39,   564.0
 1451.79,   590.0
 1451.20,   572.0
 1450.60,   572.0
 1450.01,   582.0
 1449.42,   565.0
 1448.82,   569.0
 1448.23,   569.0
 1447.64,   585.0
 1447.04,   586.0
 1446.45,   595.0
 1445.85,   606.0
 1445.26,   565.0
 1444.67,   578.0
 1444.07,   582.0
 1443.48,   561.0
 1442.88,   573.0
 1442.29,   554.0
 1441.70,   572.0
 1441.10,   552.0
 1440.51,   576.0
 1439.91,   586.0
 1439.32,   561.0
 1438.72,   565.0
 1438.13,   584.0
 1437.53,   573.0
 1436.94,   572.0
 1436.35,   559.0
 1435.75,   586.0
 1435.16,   561.0
 1434.56,   569.0
 1433.97,   565.0
 1433.37,   577.0
 1432.78,   592.0
 1432.18,   555.0
 1431.59,   576.0
 1430.99,   565.0
 1430.40,   573.0
 1429.80,   568.0
 1429.21,   543.0
 1428.61,   565.0
 1428.02,   560.0
 1427.42,   571.0
 1426.83,   587.0
 1426.23,   571.0
 1425.63,   566.0
 1425.04,   542.0
 1424.44,   559.0
 1423.85,   555.0
 1423.25,   559.0
 1422.66,   538.0
 1422.06,   560.0
 1421.46,   588.0
 1420.87,   559.0
 1420.27,   556.0
 1419.68,   564.0
 1419.08,   577.0
 1418.48,   543.0
 1417.89,   553.0
 1417.29,   563.0
 1416.70,   563.0
 1416.10,   547.0
 1415.50,   569.0
 1414.91,   569.0
 1414.31,   540.0
 1413.71,   552.0
 1413.12,   545.0
 1412.52,   554.0
 1411.93,   545.0
 1411.33,   557.0
 1410.73,   563.0
 1410.14,   551.0
 1409.54,   557.0
 1408.94,   530.0
 1408.35,   546.0
 1407.75,   540.0
 1407.15,   535.0
 1406.55,   559.0
 1405.96,   561.0
 1405.36,   539.0
 1404.76,   551.0
 1404.17,   568.0
 1403.57,   551.0
 1402.97,   550.0
 1402.37,   542.0
 1401.78,   537.0
 1401.18,   556.0
 1400.58,   547.0
 1399.98,   549.0
 1399.39,   548.0
 1398.79,   534.0
 1398.19,   547.0
 1397.60,   560.0
 1397.00,   556.0
 1396.40,   532.0
 1395.80,   544.0
 1395.20,   546.0
 1394.61,   526.0
 1394.01,   540.0
 1393.41,   509.0
 1392.81,   540.0
 1392.21,   538.0
 1391.62,   562.0
 1391.02,   551.0
 1390.42,   519.0
 1389.82,   553.0
 1389.22,   541.0
 1388.62,   493.0
 1388.03,   545.0
 1387.43,   559.0
 1386.83,   540.0
 1386.23,   534.0
 1385.63,   539.0
 1385.03,   527.0
 1384.44,   539.0
 1383.84,   507.0
 1383.24,   544.0
 1382.64,   526.0
 1382.04,   537.0
 1381.44,   531.0
 1380.84,   550.0
 1380.24,   531.0
 1379.65,   521.0
 1379.05,   525.0
 1378.45,   537.0
 1377.85,   554.0
 1377.25,   532.0
 1376.65,   534.0
 1376.05,   536.0
 1375.45,   525.0
 1374.85,   526.0
 1374.25,   519.0
 1373.65,   535.0
 1373.05,   505.0
 1372.45,   518.0
 1371.85,   495.0
 1371.25,   526.0
 1370.65,   521.0
 1370.05,   506.0
 1369.45,   548.0
 1368.86,   512.0
 1368.26,   531.0
 1367.66,   531.0
 1367.06,   522.0
 1366.46,   533.0
 1365.86,   526.0
 1365.26,   523.0
 1364.66,   538.0
 1364.05,   529.0
 1363.45,   526.0
 1362.85,   543.0
 1362.25,   548.0
 1361.65,   516.0
 1361.05,   519.0
 1360.45,   531.0
 1359.85,   526.0
 1359.25,   531.0
 1358.65,   501.0
 1358.05,   514.0
 1357.45,   516.0
 1356.85,   538.0
 1356.25,   523.0
 1355.65,   511.0
 1355.05,   534.0
 1354.45,   504.0
 1353.84,   531.0
 1353.24,   517.0
 1352.64,   528.0
 1352.04,   523.0
 1351.44,   518.0
 1350.84,   519.0
 1350.24,   535.0
 1349.64,   512.0
 1349.04,   526.0
 1348.43,   522.0
 1347.83,   504.0
 1347.23,   524.0
 1346.63,   518.0
 1346.03,   531.0
 1345.43,   516.0
 1344.82,   528.0
 1344.22,   513.0
 1343.62,   517.0
 1343.02,   532.0
 1342.42,   526.0
 1341.82,   519.0
 1341.21,   515.0
 1340.61,   519.0
 1340.01,   519.0
 1339.41,   501.0
 1338.81,   527.0
 1338.20,   517.0
 1337.60,   545.0
 1337.00,   527.0
 1336.40,   520.0
 1335.79,   539.0
 1335.19,   515.0
 1334.59,   525.0
 1333.99,   517.0
 1333.38,   522.0
 1332.78,   515.0
 1332.18,   503.0
 1331.58,   534.0
 1330.97,   515.0
 1330.37,   509.0
 1329.77,   509.0
 1329.16,   495.0
 1328.56,   538.0
 1327.96,   526.0
 1327.36,   523.0
 1326.75,   526.0
 1326.15,   521.0
 1325.55,   499.0
 1324.94,   520.0
 1324.34,   506.0
 1323.74,   524.0
 1323.13,   529.0
 1322.53,   524.0
 1321.93,   514.0
 1321.32,   515.0
 1320.72,   508.0
 1320.12,   526.0
 1319.51,   513.0
 1318.91,   492.0
 1318.31,   506.0
 1317.70,   534.0
 1317.10,   509.0
 1316.49,   526.0
 1315.89,   521.0
 1315.29,   514.0
 1314.68,   511.0
 1314.08,   522.0
 1313.47,   534.0
 1312.87,   522.0
 1312.27,   516.0
 1311.66,   527.0
 1311.06,   522.0
 1310.45,   501.0
 1309.85,   509.0
 1309.24,   516.0
 1308.64,   537.0
 1308.04,   530.0
 1307.43,   512.0
 1306.83,   515.0
 1306.22,   505.0
 1305.62,   531.0
 1305.01,   524.0
 1304.41,   534.0
 1303.80,   518.0
 1303.20,   522.0
 1302.59,   539.0
 1301.99,   521.0
 1301.38,   517.0
 1300.78,   494.0
 1300.17,   522.0
 1299.57,   534.0
 1298.96,   541.0
 1298.36,   514.0
 1297.75,   529.0
 1297.15,   528.0
 1296.54,   524.0
 1295.94,   531.0
 1295.33,   531.0
 1294.73,   514.0
 1294.12,   535.0
 1293.51,   527.0
 1292.91,   516.0
 1292.30,   538.0
 1291.70,   509.0
 1291.09,   534.0
 1290.49,   527.0
 1289.88,   514.0
 1289.27,   523.0
 1288.67,   539.0
 1288.06,   530.0
 1287.46,   504.0
 1286.85,   519.0
 1286.24,   499.0
 1285.64,   529.0
 1285.03,   542.0
 1284.43,   528.0
 1283.82,   545.0
 1283.21,   526.0
 1282.61,   536.0
 1282.00,   539.0
 1281.39,   530.0
 1280.79,   517.0
 1280.18,   532.0
 1279.57,   514.0
 1278.97,   534.0
 1278.36,   535.0
 1277.75,   527.0
 1277.15,   526.0
 1276.54,   556.0
 1275.93,   550.0
 1275.33,   531.0
 1274.72,   554.0
 1274.11,   542.0
 1273.50,   528.0
 1272.90,   545.0
 1272.29,   549.0
 1271.68,   561.0
 1271.07,   564.0
 1270.47,   566.0
 1269.86,   534.0
 1269.25,   568.0
 1268.65,   539.0
 1268.04,   553.0
 1267.43,   568.0
 1266.82,   534.0
 1266.22,   532.0
 1265.61,   532.0
 1265.00,   544.0
 1264.39,   552.0
 1263.78,   563.0
 1263.18,   572.0
 1262.57,   562.0
 1261.96,   555.0
 1261.35,   573.0
 1260.74,   542.0
 1260.14,   547.0
 1259.53,   555.0
 1258.92,   546.0
 1258.31,   566.0
 1257.70,   564.0
 1257.09,   563.0
 1256.49,   563.0
 1255.88,   554.0
 1255.27,   558.0
 1254.66,   550.0
 1254.05,   557.0
 1253.44,   572.0
 1252.83,   556.0
 1252.23,   576.0
 1251.62,   565.0
 1251.01,   581.0
 1250.40,   590.0
 1249.79,   590.0
 1249.18,   582.0
 1248.57,   582.0
 1247.96,   572.0
 1247.35,   581.0
 1246.74,   586.0
 1246.14,   600.0
 1245.53,   591.0
 1244.92,   595.0
 1244.31,   614.0
 1243.70,   612.0
 1243.09,   594.0
 1242.48,   607.0
 1241.87,   603.0
 1241.26,   595.0
 1240.65,   597.0
 1240.04,   627.0
 1239.43,   633.0
 1238.82,   614.0
 1238.21,   637.0
 1237.60,   622.0
 1236.99,   638.0
 1236.38,   627.0
 1235.77,   633.0
 1235.16,   625.0
 1234.55,   619.0
 1233.94,   641.0
 1233.33,   638.0
 1232.72,   650.0
 1232.11,   651.0
 1231.50,   672.0
 1230.89,   658.0
 1230.28,   666.0
 1229.67,   657.0
 1229.06,   645.0
 1228.45,   653.0
 1227.84,   690.0
 1227.23,   673.0
 1226.62,   674.0
 1226.01,   667.0
 1225.39,   686.0
 1224.78,   700.0
 1224.17,   700.0
 1223.56,   719.0
 1222.95,   726.0
 1222.34,   713.0
 1221.73,   704.0
 1221.12,   741.0
 1220.51,   727.0
 1219.89,   726.0
 1219.28,   749.0
 1218.67,   754.0
 1218.06,   760.0
 1217.45,   760.0
 1216.84,   750.0
 1216.23,   774.0
 1215.62,   757.0
 1215.00,   772.0
 1214.39,   820.0
 1213.78,   806.0
 1213.17,   827.0
 1212.56,   834.0
 1211.94,   835.0
 1211.33,   863.0
 1210.72,   872.0
 1210.11,   875.0
 1209.50,   855.0
 1208.88,   889.0
 1208.27,   903.0
 1207.66,   926.0
 1207.05,   936.0
 1206.44,   928.0
 1205.82,   949.0
 1205.21,   947.0
 1204.60,   978.0
 1203.99,  1011.0
 1203.37,  1003.0
 1202.76,  1007.0
 1202.15,  1067.0
 1201.54,  1071.0
 1200.92,  1078.0
 1200.31,  1090.0
 1199.70,  1129.0
 1199.09,  1147.0
 1198.47,  1158.0
 1197.86,  1209.0
 1197.25,  1188.0
 1196.63,  1250.0
 1196.02,  1279.0
 1195.41,  1288.0
 1194.79,  1326.0
 1194.18,  1345.0
 1193.57,  1352.0
 1192.95,  1414.0
 1192.34,  1421.0
 1191.73,  1459.0
 1191.11,  1492.0
 1190.50,  1470.0
 1189.89,  1564.0
 1189.27,  1586.0
 1188.66,  1619.0
 1188.05,  1659.0
 1187.43,  1702.0
 1186.82,  1753.0
 1186.21,  1820.0
 1185.59,  1834.0
 1184.98,  1867.0
 1184.36,  1920.0
 1183.75,  1942.0
 1183.14,  1949.0
 1182.52,  2022.0
 1181.91,  2093.0
 1181.29,  2167.0
 1180.68,  2160.0
 1180.07,  2241.0
 1179.45,  2294.0
 1178.84,  2328.0
 1178.22,  2410.0
 1177.61,  2492.0
 1176.99,  2506.0
 1176.38,  2558.0
 1175.76,  2617.0
 1175.15,  2744.0
 1174.53,  2776.0
 1173.92,  2792.0
 1173.30,  2935.0
 1172.69,  2946.0
 1172.08,  3016.0
 1171.46,  3105.0
 1170.85,  3204.0
 1170.23,  3255.0
 1169.62,  3326.0
 1169.00,  3479.0
 1168.38,  3521.0
 1167.77,  3527.0
 1167.15,  3655.0
 1166.54,  3691.0
 1165.92,  3779.0
 1165.31,  3877.0
 1164.69,  3930.0
 1164.08,  4024.0
 1163.46,  4071.0
 1162.85,  4250.0
 1162.23,  4316.0
 1161.62,  4401.0
 1161.00,  4530.0
 1160.38,  4539.0
 1159.77,  4663.0
 1159.15,  4735.0
 1158.54,  4836.0
 1157.92,  4929.0
 1157.30,  5004.0
 1156.69,  5061.0
 1156.07,  5265.0
 1155.46,  5285.0
 1154.84,  5374.0
 1154.22,  5435.0
 1153.61,  5536.0
 1152.99,  5639.0
 1152.37,  5838.0
 1151.76,  5924.0
 1151.14,  5934.0
 1150.53,  6042.0
 1149.91,  6141.0
 1149.29,  6218.0
 1148.68,  6375.0
 1148.06,  6465.0
 1147.44,  6545.0
 1146.82,  6637.0
 1146.21,  6765.0
 1145.59,  6859.0
 1144.97,  6942.0
 1144.36,  7013.0
 1143.74,  6978.0
 1143.12,  7109.0
 1142.51,  7304.0
 1141.89,  7402.0
 1141.27,  7464.0
 1140.65,  7527.0
 1140.04,  7664.0
 1139.42,  7715.0
 1138.80,  7868.0
 1138.18,  7932.0
 1137.57,  7957.0
 1136.95,  8035.0
 1136.33,  8126.0
 1135.71,  8178.0
 1135.10,  8309.0
 1134.48,  8441.0
 1133.86,  8468.0
 1133.24,  8494.0
 1132.63,  8642.0
 1132.01,  8763.0
 1131.39,  8940.0
 1130.77,  8899.0
 1130.15,  8995.0
 1129.54,  9077.0
 1128.92,  9188.0
 1128.30,  9230.0
 1127.68,  9327.0
 1127.06,  9411.0
 1126.44,  9495.0
 1125.82,  9439.0
 1125.21,  9580.0
 1124.59,  9637.0
 1123.97,  9865.0
 1123.35,  9937.0
 1122.73,  9951.0
 1122.11, 10023.0
 1121.49, 10110.0
 1120.88, 10139.0
 1120.26, 10344.0
 1119.64, 10447.0
 1119.02, 10417.0
 1118.40, 10550.0
 1117.78, 10609.0
 1117.16, 10728.0
 1116.54, 10743.0
 1115.92, 10847.0
 1115.30, 10922.0
 1114.69, 10847.0
 1114.07, 11058.0
 1113.45, 11164.0
 1112.83, 11088.0
 1112.21, 11240.0
 1111.59, 11255.0
 1110.97, 11407.0
 1110.35, 11422.0
 1109.73, 11453.0
 1109.11, 11453.0
 1108.49, 11545.0
 1107.87, 11499.0
 1107.25, 11560.0
 1106.63, 11560.0
 1106.01, 11576.0
 1105.39, 11576.0
 1104.77, 11560.0
 1104.15, 11530.0
 1103.53, 11653.0
 1102.91, 11576.0
 1102.29, 11653.0
 1101.67, 11653.0
 1101.05, 11545.0
 1100.43, 11484.0
 1099.81, 11422.0
 1099.19, 11407.0
 1098.57, 11300.0
 1097.95, 11331.0
 1097.33, 11164.0
 1096.71, 11164.0
 1096.09, 11088.0
 1095.46, 11028.0
 1094.84, 10847.0
 1094.22, 10773.0
 1093.60, 10698.0
 1092.98, 10609.0
 1092.36, 10461.0
 1091.74, 10447.0
 1091.12, 10314.0
 1090.50, 10168.0
 1089.88, 10038.0
 1089.26,  9937.0
 1088.63,  9836.0
 1088.01,  9765.0
 1087.39,  9524.0
 1086.77,  9481.0
 1086.15,  9369.0
 1085.53,  9243.0
 1084.91,  9077.0
 1084.28,  8885.0
 1083.66,  8858.0
 1083.04,  8669.0
 1082.42,  8575.0
 1081.80,  8362.0
 1081.17,  8283.0
 1080.55,  8217.0
 1079.93,  8113.0
 1079.31,  7893.0
 1078.69,  7804.0
 1078.07,  7702.0
 1077.44,  7502.0
 1076.82,  7440.0
 1076.20,  7267.0
 1075.58,  7206.0
 1074.95,  7097.0
 1074.33,  6942.0
 1073.71,  6835.0
 1073.09,  6742.0
 1072.46,  6637.0
 1071.84,  6488.0
 1071.22,  6363.0
 1070.60,  6185.0
 1069.97,  6152.0
 1069.35,  6021.0
 1068.73,  5892.0
 1068.11,  5838.0
 1067.48,  5598.0
 1066.86,  5557.0
 1066.24,  5587.0
 1065.61,  5455.0
 1064.99,  5344.0
 1064.37,  5265.0
 1063.74,  5167.0
 1063.12,  5109.0
 1062.50,  4995.0
 1061.87,  4929.0
 1061.25,  4781.0
 1060.63,  4681.0
 1060.00,  4592.0
 1059.38,  4548.0
 1058.76,  4435.0
 1058.13,  4350.0
 1057.51,  4300.0
 1056.89,  4275.0
 1056.26,  4143.0
 1055.64,  4127.0
 1055.02,  4095.0
 1054.39,  3938.0
 1053.77,  3884.0
 1053.14,  3794.0
 1052.52,  3749.0
 1051.90,  3705.0
 1051.27,  3569.0
 1050.65,  3576.0
 1050.02,  3452.0
 1049.40,  3466.0
 1048.77,  3358.0
 1048.15,  3345.0
 1047.53,  3242.0
 1046.90,  3210.0
 1046.28,  3160.0
 1045.65,  3105.0
 1045.03,  3010.0
 1044.40,  2987.0
 1043.78,  2935.0
 1043.15,  2873.0
 1042.53,  2829.0
 1041.90,  2802.0
 1041.28,  2744.0
 1040.65,  2723.0
 1040.03,  2662.0
 1039.40,  2631.0
 1038.78,  2597.0
 1038.15,  2530.0
 1037.53,  2483.0
 1036.90,  2460.0
 1036.28,  2433.0
 1035.65,  2433.0
 1035.03,  2397.0
 1034.40,  2328.0
 1033.78,  2294.0
 1033.15,  2270.0
 1032.53,  2229.0
 1031.90,  2118.0
 1031.27,  2171.0
 1030.65,  2107.0
 1030.02,  2032.0
 1029.40,  2096.0
 1028.77,  2032.0
 1028.15,  2015.0
 1027.52,  1952.0
 1026.89,  1981.0
 1026.27,  1907.0
 1025.64,  1898.0
 1025.02,  1876.0
 1024.39,  1876.0
 1023.76,  1855.0
 1023.14,  1834.0
 1022.51,  1777.0
 1021.88,  1753.0
 1021.26,  1736.0
 1020.63,  1742.0
 1020.01,  1689.0
 1019.38,  1713.0
 1018.75,  1672.0
 1018.13,  1692.0
 1017.50,  1657.0
 1016.87,  1619.0
 1016.25,  1623.0
 1015.62,  1593.0
 1014.99,  1575.0
 1014.36,  1582.0
 1013.74,  1551.0
 1013.11,  1513.0
 1012.48,  1511.0
 1011.86,  1490.0
 1011.23,  1494.0
 1010.60,  1444.0
 1009.97,  1459.0
 1009.35,  1463.0
 1008.72,  1459.0
 1008.09,  1429.0
 1007.47,  1432.0
 1006.84,  1400.0
 1006.21,  1394.0
 1005.58,  1359.0
 1004.96,  1375.0
 1004.33,  1345.0
 1003.70,  1364.0
 1003.07,  1329.0
 1002.44,  1367.0
 1001.82,  1325.0
 1001.19,  1291.0
 1000.56,  1300.0
  999.93,  1320.0
  999.30,  1288.0
  998.68,  1320.0
  998.05,  1291.0
  997.42,  1266.0
  996.79,  1298.0
  996.16,  1307.0
  995.53,  1295.0
  994.91,  1233.0
  994.28,  1272.0
  993.65,  1242.0
  993.02,  1242.0
  992.39,  1229.0
  991.76,  1257.0
  991.13,  1265.0
  990.51,  1242.0
  989.88,  1202.0
  989.25,  1223.0
  988.62,  1227.0
  987.99,  1215.0
  987.36,  1257.0
  986.73,  1239.0
  986.10,  1209.0
  985.47,  1210.0
  984.85,  1196.0
  984.22,  1182.0
  983.59,  1193.0
  982.96,  1185.0
  982.33,  1178.0
  981.70,  1207.0
  981.07,  1195.0
  980.44,  1151.0
  979.81,  1152.0
  979.18,  1204.0
  978.55,  1159.0
  977.92,  1149.0
  977.29,  1147.0
  976.66,  1160.0
  976.03,  1176.0
  975.40,  1158.0
  974.77,  1147.0
  974.14,  1129.0
  973.51,  1129.0
  972.88,  1101.0
  972.25,  1108.0
  971.62,  1157.0
  970.99,  1101.0
  970.36,  1098.0
  969.73,  1105.0
  969.10,  1121.0
  968.47,  1121.0
  967.84,  1104.0
  967.21,  1124.0
  966.58,  1117.0
  965.95,  1104.0
  965.32,  1090.0
  964.69,  1112.0
  964.06,  1080.0
  963.42,  1109.0
  962.79,  1083.0
  962.16,  1094.0
  961.53,  1071.0
  960.90,  1078.0
  960.27,  1063.0
  959.64,  1094.0
  959.01,  1055.0
  958.38,  1091.0
  957.74,  1103.0
  957.11,  1080.0
  956.48,  1049.0
  955.85,  1057.0
  955.22,  1096.0
  954.59,  1071.0
  953.96,  1087.0
  953.33,  1081.0
  952.69,  1094.0
  952.06,  1051.0
  951.43,  1094.0
  950.80,  1056.0
  950.17,  1063.0
  949.53,  1094.0
  948.90,  1115.0
  948.27,  1121.0
  947.64,  1103.0
  947.01,  1107.0
  946.37,  1097.0
  945.74,  1094.0
  945.11,  1100.0
  944.48,  1087.0
  943.85,  1103.0
  943.21,  1053.0
  942.58,  1083.0
  941.95,  1068.0
  941.32,  1094.0
  940.68,  1058.0
  940.05,  1073.0
  939.42,  1069.0
  938.79,  1065.0
  938.15,  1038.0
  937.52,  1046.0
  936.89,  1054.0
  936.25,  1027.0
  935.62,  1042.0
  934.99,  1037.0
  934.35,  1019.0
  933.72,   987.0
  933.09,   995.0
  932.46,  1018.0
  931.82,   979.0
  931.19,   941.0
  930.56,   952.0
  929.92,   940.0
  929.29,   904.0
  928.66,   949.0
  928.02,   901.0
  927.39,   933.0
  926.75,   879.0
  926.12,   877.0
  925.49,   872.0
  924.85,   889.0
  924.22,   874.0
  923.59,   874.0
  922.95,   850.0
  922.32,   841.0
  921.68,   823.0
  921.05,   823.0
  920.42,   810.0
  919.78,   799.0
  919.15,   801.0
  918.51,   768.0
  917.88,   813.0
  917.24,   759.0
  916.61,   774.0
  915.98,   751.0
  915.34,   767.0
  914.71,   774.0
  914.07,   733.0
  913.44,   772.0
  912.80,   743.0
  912.17,   729.0
  911.53,   727.0
  910.90,   716.0
  910.26,   696.0
  909.63,   699.0
  908.99,   722.0
  908.36,   710.0
  907.72,   683.0
  907.09,   696.0
  906.45,   701.0
  905.82,   699.0
  905.18,   668.0
  904.55,   692.0
  903.91,   689.0
  903.28,   668.0
  902.64,   676.0
  902.01,   687.0
  901.37,   680.0
  900.74,   645.0
  900.10,   639.0
  899.46,   659.0
  898.83,   662.0
  898.19,   638.0
  897.56,   619.0
  896.92,   625.0
  896.28,   654.0
  895.65,   667.0
  895.01,   637.0
  894.38,   659.0
  893.74,   650.0
  893.10,   615.0
  892.47,   642.0
  891.83,   641.0
  891.20,   626.0
  890.56,   633.0
  889.92,   624.0
  889.29,   624.0
  888.65,   641.0
  888.01,   652.0
  887.38,   624.0
  886.74,   616.0
  886.10,   628.0
  885.47,   601.0
  884.83,   647.0
  884.19,   639.0
  883.56,   645.0
  882.92,   622.0
  882.28,   610.0
  881.64,   616.0
  881.01,   613.0
  880.37,   624.0
  879.73,   597.0
  879.10,   593.0
  878.46,   584.0
  877.82,   619.0
  877.18,   614.0
  876.55,   586.0
  875.91,   604.0
  875.27,   604.0
  874.63,   604.0
  874.00,   588.0
  873.36,   592.0
  872.72,   597.0
  872.08,   607.0
  871.45,   603.0
  870.81,   576.0
  870.17,   606.2
  869.53,   626.1
  868.89,   611.9
  868.26,   625.5
  867.62,   627.7
  866.98,   650.7
  866.34,   621.1
  865.70,   638.3
  865.06,   634.5
  864.43,   639.4
  863.79,   654.9
  863.15,   676.2
  862.51,   683.9
  861.87,   662.2
  861.23,   672.9
  860.59,   684.4
  859.96,   713.4
  859.32,   705.3
  858.68,   718.7
  858.04,   726.8
  857.40,   708.5
  856.76,   725.4
  856.12,   727.0
  855.48,   715.4
  854.84,   752.5
  854.21,   752.8
  853.57,   748.8
  852.93,   752.6
  852.29,   771.1
  851.65,   760.4
  851.01,   767.6
  850.37,   810.7
  849.73,   800.9
  849.09,   796.0
  848.45,   803.6
  847.81,   808.9
  847.17,   824.6
  846.53,   828.6
  845.89,   827.7
  845.25,   844.4
  844.61,   850.1
  843.97,   849.9
  843.33,   876.9
  842.69,   867.2
  842.05,   872.1
  841.41,   843.3
  840.77,   903.6
  840.13,   873.3
  839.49,   905.1
  840.22,   893.0
  839.59,   886.0
  838.95,   928.0
  838.31,   917.0
  837.68,   914.0
  837.04,   889.0
  836.40,   939.0
  835.77,   958.0
  835.13,   932.0
  834.49,   895.0
  833.86,   892.0
  833.22,   924.0
  832.58,   924.0
  831.94,   940.0
  831.31,   959.0
  830.67,   951.0
  830.03,   969.0
  829.39,   954.0
  828.76,   939.0
  828.12,   955.0
  827.48,   993.0
  826.84,   975.0
  826.21,   983.0
  825.57,   986.0
  824.93,  1002.0
  824.29,  1004.0
  823.65,  1017.0
  823.02,  1014.0
  822.38,  1020.0
  821.74,  1010.0
  821.10,  1021.0
  820.46,  1056.0
  819.83,  1071.0
  819.19,  1060.0
  818.55,  1100.0
  817.91,  1078.0
  817.27,  1069.0
  816.63,  1116.0
  816.00,  1120.0
  815.36,  1142.0
  814.72,  1130.0
  814.08,  1144.0
  813.44,  1177.0
  812.80,  1180.0
  812.16,  1187.0
  811.52,  1196.0
  810.88,  1196.0
  810.25,  1223.0
  809.61,  1227.0
  808.97,  1231.0
  808.33,  1263.0
  807.69,  1285.0
  807.05,  1312.0
  806.41,  1309.0
  805.77,  1328.0
  805.13,  1307.0
  804.49,  1364.0
  803.85,  1394.0
  803.21,  1354.0
  802.57,  1421.0
  801.94,  1375.0
  801.30,  1414.0
  800.66,  1429.0
  800.02,  1429.0
  799.38,  1474.0
  798.74,  1444.0
  798.10,  1474.0
  797.46,  1494.0
  796.82,  1480.0
  796.18,  1511.0
  795.54,  1538.0
  794.90,  1557.0
  794.26,  1560.0
  793.62,  1557.0
  792.97,  1602.0
  792.33,  1593.0
  791.69,  1612.0
  791.05,  1609.0
  790.41,  1638.0
  789.77,  1633.0
  789.13,  1662.0
  788.49,  1657.0
  787.85,  1669.0
  787.21,  1692.0
  786.57,  1689.0
  785.93,  1710.0
  785.29,  1734.0
  784.65,  1723.0
  784.00,  1772.0
  783.36,  1758.0
  782.72,  1753.0
  782.08,  1783.0
  781.44,  1769.0
  780.80,  1805.0
  780.16,  1811.0
  779.52,  1753.0
  778.87,  1797.0
  778.23,  1811.0
  777.59,  1823.0
  776.95,  1797.0
  776.31,  1864.0
  775.67,  1873.0
  775.03,  1843.0
  774.38,  1873.0
  773.74,  1837.0
  773.10,  1873.0
  772.46,  1870.0
  771.82,  1892.0
  771.17,  1923.0
  770.53,  1849.0
  769.89,  1920.0
  769.25,  1892.0
  768.60,  1907.0
  767.96,  1942.0
  767.32,  1926.0
  766.68,  1885.0
  766.04,  1926.0
  765.39,  1917.0
  764.75,  1901.0
  764.11,  1882.0
  763.46,  1892.0
  762.82,  1904.0
  762.18,  1917.0
  761.54,  1901.0
  760.89,  1892.0
  760.25,  1895.0
  759.61,  1942.0
  758.96,  1901.0
  758.32,  1929.0
  757.68,  1929.0
  757.04,  1917.0
  756.39,  1981.0
  755.75,  1926.0
  755.11,  1926.0
  754.46,  1901.0
  753.82,  1910.0
  753.18,  1904.0
  752.53,  1901.0
  751.89,  1901.0
  751.24,  1867.0
  750.60,  1898.0
  749.96,  1852.0
  749.31,  1917.0
  748.67,  1867.0
  748.03,  1895.0
  747.38,  1876.0
  746.74,  1917.0
  746.09,  1855.0
  745.45,  1895.0
  744.81,  1867.0
  744.16,  1852.0
  743.52,  1843.0
  742.87,  1846.0
  742.23,  1820.0
  741.58,  1820.0
  740.94,  1867.0
  740.30,  1811.0
  739.65,  1826.0
  739.01,  1805.0
  738.36,  1808.0
  737.72,  1803.0
  737.07,  1805.0
  736.43,  1852.0
  735.78,  1808.0
  735.14,  1820.0
  734.49,  1755.0
  733.85,  1820.0
  733.20,  1788.0
  732.56,  1811.0
  731.91,  1800.0
  731.27,  1769.0
  730.62,  1797.0
  729.98,  1791.0
  729.33,  1780.0
  728.69,  1755.0
  728.04,  1777.0
  727.40,  1788.0
  726.75,  1763.0
  726.10,  1753.0
  725.46,  1763.0
  724.81,  1763.0
  724.17,  1758.0
  723.52,  1803.0
  722.88,  1734.0
  722.23,  1783.0
  721.58,  1780.0
  720.94,  1761.0
  720.29,  1808.0
  719.65,  1797.0
  719.00,  1797.0
  718.35,  1808.0
  717.71,  1858.0
  717.06,  1817.0
  716.42,  1791.0
  715.77,  1805.0
  715.12,  1820.0
  714.48,  1811.0
  713.83,  1837.0
  713.18,  1858.0
  712.54,  1837.0
  711.89,  1826.0
  711.24,  1892.0
  710.60,  1876.0
  709.95,  1892.0
  709.30,  1861.0
  708.66,  1837.0
  708.01,  1904.0
  707.36,  1892.0
  706.71,  1920.0
  706.07,  1942.0
  705.42,  1995.0
  704.77,  1926.0
  704.13,  1955.0
  703.48,  1945.0
  702.83,  2002.0
  702.18,  1968.0
  701.54,  2005.0
  700.89,  2012.0
  700.24,  2029.0
  699.59,  2015.0
  698.94,  2053.0
  698.30,  2115.0
  697.65,  2075.0
  697.00,  2082.0
  696.35,  2107.0
  695.71,  2096.0
  695.06,  2118.0
  694.41,  2126.0
  693.76,  2148.0
  693.11,  2182.0
  692.47,  2126.0
  691.82,  2182.0
  691.17,  2229.0
  690.52,  2210.0
  689.87,  2237.0
  689.22,  2218.0
  688.58,  2262.0
  687.93,  2274.0
  687.28,  2262.0
  686.63,  2294.0
  685.98,  2328.0
  685.33,  2274.0
  684.68,  2362.0
  684.03,  2433.0
  683.39,  2410.0
  682.74,  2397.0
  682.09,  2367.0
  681.44,  2451.0
  680.79,  2451.0
  680.14,  2506.0
  679.49,  2455.0
  678.84,  2492.0
  678.19,  2553.0
  677.54,  2506.0
  676.89,  2582.0
  676.24,  2597.0
  675.59,  2592.0
  674.94,  2641.0
  674.29,  2622.0
  673.65,  2662.0
  673.00,  2662.0
  672.35,  2687.0
  671.70,  2770.0
  671.05,  2744.0
  670.40,  2754.0
  669.75,  2797.0
  669.10,  2792.0
  668.45,  2835.0
  667.80,  2829.0
  667.15,  2879.0
  666.50,  2890.0
  665.84,  2935.0
  665.19,  2952.0
  664.54,  2901.0
  663.89,  2981.0
  663.24,  3010.0
  662.59,  2981.0
  661.94,  3028.0
  661.29,  3105.0
  660.64,  3045.0
  659.99,  3154.0
  659.34,  3160.0
  658.69,  3130.0
  658.04,  3185.0
  657.39,  3223.0
  656.74,  3267.0
  656.08,  3306.0
  655.43,  3326.0
  654.78,  3385.0
  654.13,  3385.0
  653.48,  3445.0
  652.83,  3425.0
  652.18,  3452.0
  651.53,  3486.0
  650.87,  3633.0
  650.22,  3583.0
  649.57,  3598.0
  648.92,  3640.0
  648.27,  3633.0
  647.62,  3691.0
  646.96,  3691.0
  646.31,  3794.0
  645.66,  3794.0
  645.01,  3809.0
  644.36,  3869.0
  643.70,  3922.0
  643.05,  3992.0
  642.40,  4016.0
  641.75,  4031.0
  641.10,  4176.0
  640.44,  4168.0
  639.79,  4184.0
  639.14,  4291.0
  638.49,  4342.0
  637.83,  4384.0
  637.18,  4427.0
  636.53,  4461.0
  635.88,  4601.0
  635.22,  4548.0
  634.57,  4601.0
  633.92,  4690.0
  633.26,  4763.0
  632.61,  4808.0
  631.96,  4808.0
  631.31,  5014.0
  630.65,  4976.0
  630.00,  5004.0
  629.35,  5109.0
  628.69,  5138.0
  628.04,  5285.0
  627.39,  5295.0
  626.73,  5354.0
  626.08,  5455.0
  625.43,  5536.0
  624.77,  5618.0
  624.12,  5598.0
  623.47,  5701.0
  622.81,  5807.0
  622.16,  5860.0
  621.51,  5967.0
  620.85,  6021.0
  620.20,  6108.0
  619.54,  6185.0
  618.89,  6307.0
  618.24,  6352.0
  617.58,  6454.0
  616.93,  6556.0
  616.27,  6545.0
  615.62,  6707.0
  614.96,  6765.0
  614.31,  6942.0
  613.66,  7001.0
  613.00,  7085.0
  612.35,  7109.0
  611.69,  7292.0
  611.04,  7365.0
  610.38,  7639.0
  609.73,  7639.0
  609.07,  7652.0
  608.42,  7855.0
  607.76,  7932.0
  607.11,  8100.0
  606.45,  8322.0
  605.80,  8335.0
  605.14,  8468.0
  604.49,  8441.0
  603.83,  8655.0
  603.18,  8682.0
  602.52,  8763.0
  601.87,  8967.0
  601.21,  9077.0
  600.56,  9174.0
  599.90,  9299.0
  599.25,  9271.0
  598.59,  9411.0
  597.93,  9411.0
  597.28,  9524.0
  596.62,  9594.0
  595.97,  9637.0
  595.31,  9751.0
  594.66,  9751.0
  594.00,  9865.0
  593.34,  9822.0
  592.69,  9879.0
  592.03,  9879.0
  591.38,  9879.0
  590.72,  9765.0
  590.06,  9908.0
  589.41,  9894.0
  588.75,  9836.0
  588.09,  9765.0
  587.44,  9751.0
  586.78,  9637.0
  586.13,  9637.0
  585.47,  9637.0
  584.81,  9524.0
  584.16,  9425.0
  583.50,  9313.0
  582.84,  9299.0
  582.18,  9202.0
  581.53,  9216.0
  580.87,  9077.0
  580.21,  8995.0
  579.56,  9077.0
  578.90,  8967.0
  578.24,  8858.0
  577.59,  8804.0
  576.93,  8763.0
  576.27,  8750.0
  575.61,  8750.0
  574.96,  8655.0
  574.30,  8709.0
  573.64,  8750.0
  572.98,  8709.0
  572.33,  8722.0
  571.67,  8709.0
  571.01,  8763.0
  570.35,  8763.0
  569.70,  8750.0
  569.04,  8736.0
  568.38,  8763.0
  567.72,  8709.0
  567.06,  8858.0
  566.40,  8858.0
  565.75,  8954.0
  565.09,  8967.0
  564.43,  8967.0
  563.77,  8995.0
  563.11,  9050.0
  562.46,  9077.0
  561.80,  9188.0
  561.14,  9188.0
  560.48,  9216.0
  559.82,  9327.0
  559.16,  9383.0
  558.50,  9439.0
  557.85,  9467.0
  557.19,  9453.0
  556.53,  9651.0
  555.87,  9580.0
  555.21,  9822.0
  554.55,  9894.0
  553.89,  9980.0
  553.23,  9995.0
  552.57, 10023.0
  551.91, 10212.0
  551.25, 10344.0
  550.60, 10402.0
  549.94, 10402.0
  549.28, 10535.0
  548.62, 10683.0
  547.96, 10683.0
  547.30, 10817.0
  546.64, 10937.0
  545.98, 10998.0
  545.32, 11058.0
  544.66, 11164.0
  544.00, 11255.0
  543.34, 11285.0
  542.68, 11422.0
  542.02, 11499.0
  541.36, 11468.0
  540.70, 11653.0
  540.04, 11715.0
  539.38, 11653.0
  538.72, 11901.0
  538.06, 11947.0
  537.40, 11979.0
  536.74, 12198.0
  536.08, 12198.0
  535.42, 12151.0
  534.76, 12166.0
  534.10, 12229.0
  533.44, 12198.0
  532.77, 12276.0
  532.11, 12276.0
  531.45, 12355.0
  530.79, 12402.0
  530.13, 12324.0
  529.47, 12450.0
  528.81, 12355.0
  528.15, 12355.0
  527.49, 12245.0
  526.83, 12213.0
  526.16, 12276.0
  525.50, 12151.0
  524.84, 12151.0
  524.18, 12057.0
  523.52, 11901.0
  522.86, 11932.0
  522.20, 11777.0
  521.53, 11684.0
  520.87, 11653.0
  520.21, 11346.0
  519.55, 11407.0
  518.89, 11361.0
  518.23, 11194.0
  517.56, 11164.0
  516.90, 10922.0
  516.24, 10922.0
  515.58, 10728.0
  514.92, 10698.0
  514.25, 10461.0
  513.59, 10447.0
  512.93, 10300.0
  512.27, 10212.0
  511.60,  9995.0
  510.94, 10154.0
  510.28,  9822.0
  509.62,  9779.0
  508.95,  9608.0
  508.29,  9552.0
  507.63,  9524.0
  506.97,  9594.0
  506.30,  9369.0
  505.64,  9327.0
  504.98,  9188.0
  504.31,  9119.0
  503.65,  9077.0
  502.99,  8954.0
  502.33,  8872.0
  501.66,  8940.0
  501.00,  8872.0
  500.34,  8858.0
  499.67,  8682.0
  499.01,  8777.0
  498.35,  8575.0
  497.68,  8575.0
  497.02,  8468.0
  496.36,  8441.0
  495.69,  8348.0
  495.03,  8375.0
  494.36,  8322.0
  493.70,  8296.0
  493.04,  8283.0
  492.37,  8100.0
  491.71,  8113.0
  491.04,  8048.0
  490.38,  8009.0
  489.72,  7944.0
  489.05,  7906.0
  488.39,  7906.0
  487.72,  7842.0
  487.06,  7804.0
  486.40,  7842.0
  485.73,  7677.0
  485.07,  7702.0
  484.40,  7664.0
  483.74,  7715.0
  483.07,  7639.0
  482.41,  7502.0
  481.74,  7539.0
  481.08,  7639.0
  480.41,  7402.0
  479.75,  7402.0
  479.08,  7341.0
  478.42,  7440.0
  477.75,  7402.0
  477.09,  7243.0
  476.42,  7304.0
  475.76,  7170.0
  475.09,  7158.0
  474.43,  7073.0
  473.76,  7073.0
  473.10,  7073.0
  472.43,  7061.0
  471.77,  7109.0
  471.10,  6978.0
  470.44,  7025.0
  469.77,  6918.0
  469.10,  6954.0
  468.44,  6871.0
  467.77,  6918.0
  467.11,  6788.0
  466.44,  6859.0
  465.77,  6824.0
  465.11,  6788.0
  464.44,  6859.0
  463.78,  6824.0
  463.11,  6672.0
  462.44,  6730.0
  461.78,  6695.0
  461.11,  6672.0
  460.45,  6683.0
  459.78,  6730.0
  459.11,  6637.0
  458.45,  6660.0
  457.78,  6660.0
  457.11,  6637.0
  456.45,  6637.0
  455.78,  6649.0
  455.11,  6545.0
  454.45,  6591.0
  453.78,  6568.0
  453.11,  6499.0
  452.44,  6476.0
  451.78,  6454.0
  451.11,  6454.0
  450.44,  6397.0
  449.78,  6375.0
  449.11,  6454.0
  448.44,  6420.0
  447.77,  6454.0
  447.11,  6285.0
  446.44,  6307.0
  445.77,  6386.0
  445.10,  6363.0
  444.44,  6375.0
  443.77,  6318.0
  443.10,  6274.0
  442.43,  6296.0
  441.77,  6274.0
  441.10,  6251.0
  440.43,  6207.0
  439.76,  6218.0
  439.09,  6274.0
  438.43,  6185.0
  437.76,  6207.0
  437.09,  6274.0
  436.42,  6185.0
  435.75,  6163.0
  435.08,  6185.0
  434.42,  6185.0
  433.75,  6185.0
  433.08,  6130.0
  432.41,  6097.0
  431.74,  6108.0
  431.07,  6108.0
  430.40,  6174.0
  429.74,  6130.0
  429.07,  6053.0
  428.40,  6130.0
  427.73,  6042.0
  427.06,  6042.0
  426.39,  6064.0
  425.72,  5988.0
  425.05,  5934.0
  424.38,  6042.0
  423.71,  5945.0
  423.04,  5956.0
  422.38,  6010.0
  421.71,  6010.0
  421.04,  5892.0
  420.37,  5956.0
  419.70,  5924.0
  419.03,  5838.0
  418.36,  5881.0
  417.69,  5892.0
  417.02,  5838.0
  416.35,  5817.0
  415.68,  5807.0
  415.01,  5838.0
  414.34,  5775.0
  413.67,  5785.0
  413.00,  5764.0
  412.33,  5701.0
  411.66,  5754.0
  410.99,  5701.0
  410.32,  5775.0
  409.65,  5754.0
  408.98,  5764.0
  408.31,  5670.0
  407.64,  5754.0
  406.97,  5712.0
  406.30,  5754.0
  405.62,  5639.0
  404.95,  5754.0
  404.28,  5639.0
  403.61,  5691.0
  402.94,  5639.0
  402.27,  5691.0
  401.60,  5681.0
  400.93,  5536.0
  400.26,  5639.0
  399.59,  5587.0
  398.92,  5587.0
  398.24,  5587.0
  397.57,  5516.0
  396.90,  5526.0
  396.23,  5505.0
  395.56,  5516.0
  394.89,  5536.0
  394.22,  5516.0
  393.54,  5505.0
  392.87,  5536.0
  392.20,  5536.0
  391.53,  5465.0
  390.86,  5495.0
  390.18,  5374.0
  389.51,  5546.0
  388.84,  5435.0
  388.17,  5475.0
  387.50,  5445.0
  386.82,  5424.0
  386.15,  5455.0
  385.48,  5445.0
  384.81,  5505.0
  384.14,  5424.0
  383.46,  5424.0
  382.79,  5424.0
  382.12,  5364.0
  381.45,  5374.0
  380.77,  5435.0
  380.10,  5364.0
  379.43,  5364.0
  378.75,  5374.0
  378.08,  5394.0
  377.41,  5354.0
  376.74,  5424.0
  376.06,  5424.0
  375.39,  5305.0
  374.72,  5295.0
  374.04,  5374.0
  373.37,  5364.0
  372.70,  5305.0
  372.02,  5314.0
  371.35,  5374.0
  370.68,  5374.0
  370.00,  5334.0
  369.33,  5305.0
  368.66,  5295.0
  367.98,  5324.0
  367.31,  5324.0
  366.64,  5285.0
  365.96,  5295.0
  365.29,  5265.0
  364.61,  5354.0
  363.94,  5236.0
  363.27,  5265.0
  362.59,  5265.0
  361.92,  5285.0
  361.24,  5344.0
  360.57,  5265.0
  359.90,  5265.0
  359.22,  5265.0
  358.55,  5314.0
  357.87,  5226.0
  357.20,  5285.0
  356.52,  5226.0
  355.85,  5265.0
  355.17,  5245.0
  354.50,  5265.0
  353.83,  5374.0
  353.15,  5295.0
  352.48,  5275.0
  351.80,  5265.0
  351.13,  5285.0
  350.45,  5196.0
  349.78,  5265.0
  349.10,  5295.0
  348.43,  5245.0
  347.75,  5265.0
  347.08,  5275.0
  346.40,  5275.0
  345.72,  5275.0
  345.05,  5216.0
  344.37,  5265.0
  343.70,  5295.0
  343.02,  5285.0
  342.35,  5314.0
  341.67,  5216.0
  341.00,  5216.0
  340.32,  5295.0
  339.64,  5295.0
  338.97,  5216.0
  338.29,  5216.0
  337.62,  5265.0
  336.94,  5245.0
  336.26,  5177.0
  335.59,  5285.0
  334.91,  5265.0
  334.24,  5236.0
  333.56,  5285.0
  332.88,  5265.0
  332.21,  5236.0
  331.53,  5265.0
  330.85,  5236.0
  330.18,  5344.0
  329.50,  5285.0
  328.82,  5216.0
  328.15,  5285.0
  327.47,  5285.0
  326.79,  5265.0
  326.12,  5285.0
  325.44,  5265.0
  324.76,  5334.0
  324.09,  5265.0
  323.41,  5404.0
  322.73,  5374.0
  322.05,  5344.0
  321.38,  5285.0
  320.70,  5344.0
  320.02,  5324.0
  319.34,  5275.0
  318.67,  5275.0
  317.99,  5265.0
  317.31,  5354.0
  316.63,  5344.0
  315.96,  5236.0
  315.28,  5187.0
  314.60,  5265.0
  313.92,  5295.0
  313.25,  5314.0
  312.57,  5216.0
  311.89,  5275.0
  311.21,  5275.0
  310.53,  5285.0
  309.86,  5295.0
  309.18,  5275.0
  308.50,  5265.0
  307.82,  5265.0
  307.14,  5295.0
  306.46,  5285.0
  305.79,  5285.0
  305.11,  5364.0
  304.43,  5196.0
  303.75,  5285.0
  303.07,  5265.0
  302.39,  5314.0
  301.71,  5226.0
  301.03,  5295.0
  300.36,  5216.0
  299.68,  5236.0
  299.00,  5344.0
  298.32,  5245.0
  297.64,  5275.0
  296.96,  5216.0
  296.28,  5187.0
  295.60,  5314.0
  294.92,  5226.0
  294.24,  5206.0
  293.56,  5236.0
  292.88,  5138.0
  292.20,  5138.0
  291.52,  5196.0
  290.85,  5187.0
  290.17,  5236.0
  289.49,  5206.0
  288.81,  5148.0
  288.13,  5196.0
  287.45,  5177.0
  286.77,  5236.0
  286.09,  5216.0
  285.41,  5187.0
  284.73,  5216.0
  284.05,  5187.0
  283.37,  5187.0
  282.69,  5148.0
  282.01,  5187.0
  281.32,  5167.0
  280.64,  5167.0
  279.96,  5109.0
  279.28,  5187.0
  278.60,  5187.0
  277.92,  5128.0
  277.24,  5187.0
  276.56,  5158.0
  275.88,  5158.0
  275.20,  5148.0
  274.52,  5128.0
  273.84,  5109.0
  273.16,  5119.0
  272.47,  5109.0
  271.79,  5148.0
  271.11,  5148.0
  270.43,  5187.0
  269.75,  5119.0
  269.07,  5071.0
  268.39,  5109.0
  267.71,  5109.0
  267.02,  5138.0
  266.34,  5109.0
  265.66,  5128.0
  264.98,  5109.0
  264.30,  5109.0
  263.62,  5109.0
  262.93,  5138.0
  262.25,  5128.0
  261.57,  5177.0
  260.89,  5148.0
  260.21,  5109.0
  259.52,  5109.0
  258.84,  5138.0
  258.16,  5109.0
  257.48,  5109.0
  256.79,  5119.0
  256.11,  5109.0
  255.43,  5052.0
  254.75,  5109.0
  254.07,  5119.0
  253.38,  5158.0
  252.70,  5119.0
  252.02,  5128.0
  251.33,  5187.0
  250.65,  5158.0
  249.97,  5128.0
  249.29,  5109.0
  248.60,  5167.0
  247.92,  5109.0
  247.24,  5071.0
  246.55,  5042.0
  245.87,  5061.0
  245.19,  5158.0
  244.50,  5109.0
  243.82,  5109.0
  243.14,  5138.0
  242.45,  5158.0
  241.77,  5167.0
  241.09,  5119.0
  240.40,  5167.0
  239.72,  5196.0
  239.04,  5187.0
  238.35,  5148.0
  237.67,  5216.0
  236.98,  5138.0
  236.30,  5216.0
  235.62,  5196.0
  234.93,  5265.0
  234.25,  5109.0
  233.57,  5216.0
  232.88,  5216.0
  232.20,  5206.0
  231.51,  5187.0
  230.83,  5265.0
  230.14,  5158.0
  229.46,  5245.0
  228.77,  5305.0
  228.09,  5177.0
  227.41,  5305.0
  226.72,  5216.0
  226.04,  5265.0
  225.35,  5245.0
  224.67,  5216.0
  223.98,  5265.0
  223.30,  5236.0
  222.61,  5324.0
  221.93,  5216.0
  221.24,  5265.0
  220.56,  5314.0
  219.87,  5324.0
  219.19,  5305.0
  218.50,  5265.0
  217.82,  5275.0
  217.13,  5265.0
  216.44,  5324.0
  215.76,  5344.0
  215.07,  5275.0
  214.39,  5344.0
  213.70,  5364.0
  213.02,  5354.0
  212.33,  5384.0
  211.64,  5374.0
  210.96,  5424.0
  210.27,  5354.0
  209.59,  5374.0
  208.90,  5384.0
  208.21,  5324.0
  207.53,  5394.0
  206.84,  5374.0
  206.16,  5424.0
  205.47,  5424.0
  204.78,  5344.0
  204.10,  5374.0
  203.41,  5505.0
  202.72,  5424.0
  202.04,  5435.0
  201.35,  5455.0
  200.66,  5374.0
  199.98,  5435.0
  199.29,  5394.0
