 1467.21,   791.0
 1466.61,   793.0
 1466.02,   823.0
 1465.43,   848.0
 1464.84,   798.0
 1464.25,   820.0
 1463.65,   825.0
 1463.06,   839.0
 1462.47,   795.0
 1461.87,   823.0
 1461.28,   814.0
 1460.69,   839.0
 1460.10,   835.0
 1459.50,   855.0
 1458.91,   798.0
 1458.32,   817.0
 1457.72,   805.0
 1457.13,   790.0
 1456.54,   807.0
 1455.95,   811.0
 1455.35,   811.0
 1454.76,   793.0
 1454.17,   801.0
 1453.57,   796.0
 1452.98,   776.0
 1452.39,   825.0
 1451.79,   812.0
 1451.20,   842.0
 1450.60,   805.0
 1450.01,   813.0
 1449.42,   785.0
 1448.82,   803.0
 1448.23,   813.0
 1447.64,   791.0
 1447.04,   805.0
 1446.45,   809.0
 1445.85,   798.0
 1445.26,   803.0
 1444.67,   794.0
 1444.07,   808.0
 1443.48,   786.0
 1442.88,   798.0
 1442.29,   790.0
 1441.70,   803.0
 1441.10,   823.0
 1440.51,   775.0
 1439.91,   797.0
 1439.32,   814.0
 1438.72,   793.0
 1438.13,   803.0
 1437.53,   807.0
 1436.94,   788.0
 1436.35,   788.0
 1435.75,   764.0
 1435.16,   787.0
 1434.56,   803.0
 1433.97,   780.0
 1433.37,   775.0
 1432.78,   780.0
 1432.18,   783.0
 1431.59,   813.0
 1430.99,   768.0
 1430.40,   816.0
 1429.80,   808.0
 1429.21,   816.0
 1428.61,   798.0
 1428.02,   767.0
 1427.42,   778.0
 1426.83,   783.0
 1426.23,   772.0
 1425.63,   779.0
 1425.04,   771.0
 1424.44,   777.0
 1423.85,   805.0
 1423.25,   807.0
 1422.66,   786.0
 1422.06,   770.0
 1421.46,   781.0
 1420.87,   783.0
 1420.27,   768.0
 1419.68,   774.0
 1419.08,   793.0
 1418.48,   779.0
 1417.89,   780.0
 1417.29,   783.0
 1416.70,   770.0
 1416.10,   780.0
 1415.50,   798.0
 1414.91,   777.0
 1414.31,   762.0
 1413.71,   825.0
 1413.12,   770.0
 1412.52,   787.0
 1411.93,   735.0
 1411.33,   788.0
 1410.73,   778.0
 1410.14,   763.0
 1409.54,   783.0
 1408.94,   773.0
 1408.35,   749.0
 1407.75,   780.0
 1407.15,   763.0
 1406.55,   779.0
 1405.96,   780.0
 1405.36,   776.0
 1404.76,   775.0
 1404.17,   774.0
 1403.57,   760.0
 1402.97,   756.0
 1402.37,   759.0
 1401.78,   768.0
 1401.18,   770.0
 1400.58,   768.0
 1399.98,   759.0
 1399.39,   779.0
 1398.79,   755.0
 1398.19,   746.0
 1397.60,   754.0
 1397.00,   763.0
 1396.40,   778.0
 1395.80,   783.0
 1395.20,   744.0
 1394.61,   768.0
 1394.01,   763.0
 1393.41,   749.0
 1392.81,   759.0
 1392.21,   762.0
 1391.62,   763.0
 1391.02,   750.0
 1390.42,   765.0
 1389.82,   763.0
 1389.22,   764.0
 1388.62,   766.0
 1388.03,   775.0
 1387.43,   716.0
 1386.83,   775.0
 1386.23,   741.0
 1385.63,   750.0
 1385.03,   744.0
 1384.44,   741.0
 1383.84,   735.0
 1383.24,   768.0
 1382.64,   732.0
 1382.04,   741.0
 1381.44,   734.0
 1380.84,   726.0
 1380.24,   758.0
 1379.65,   760.0
 1379.05,   776.0
 1378.45,   751.0
 1377.85,   750.0
 1377.25,   761.0
 1376.65,   744.0
 1376.05,   754.0
 1375.45,   780.0
 1374.85,   759.0
 1374.25,   728.0
 1373.65,   740.0
 1373.05,   737.0
 1372.45,   763.0
 1371.85,   728.0
 1371.25,   754.0
 1370.65,   754.0
 1370.05,   745.0
 1369.45,   727.0
 1368.86,   745.0
 1368.26,   741.0
 1367.66,   740.0
 1367.06,   728.0
 1366.46,   760.0
 1365.86,   741.0
 1365.26,   735.0
 1364.66,   728.0
 1364.05,   734.0
 1363.45,   731.0
 1362.85,   736.0
 1362.25,   737.0
 1361.65,   721.0
 1361.05,   724.0
 1360.45,   724.0
 1359.85,   772.0
 1359.25,   696.0
 1358.65,   717.0
 1358.05,   726.0
 1357.45,   708.0
 1356.85,   741.0
 1356.25,   721.0
 1355.65,   737.0
 1355.05,   726.0
 1354.45,   728.0
 1353.84,   733.0
 1353.24,   743.0
 1352.64,   734.0
 1352.04,   703.0
 1351.44,   749.0
 1350.84,   727.0
 1350.24,   713.0
 1349.64,   733.0
 1349.04,   713.0
 1348.43,   695.0
 1347.83,   709.0
 1347.23,   705.0
 1346.63,   727.0
 1346.03,   736.0
 1345.43,   733.0
 1344.82,   764.0
 1344.22,   713.0
 1343.62,   699.0
 1343.02,   712.0
 1342.42,   728.0
 1341.82,   715.0
 1341.21,   722.0
 1340.61,   729.0
 1340.01,   737.0
 1339.41,   723.0
 1338.81,   705.0
 1338.20,   721.0
 1337.60,   740.0
 1337.00,   697.0
 1336.40,   705.0
 1335.79,   715.0
 1335.19,   744.0
 1334.59,   716.0
 1333.99,   716.0
 1333.38,   683.0
 1332.78,   704.0
 1332.18,   705.0
 1331.58,   748.0
 1330.97,   722.0
 1330.37,   715.0
 1329.77,   717.0
 1329.16,   726.0
 1328.56,   717.0
 1327.96,   730.0
 1327.36,   707.0
 1326.75,   707.0
 1326.15,   703.0
 1325.55,   687.0
 1324.94,   713.0
 1324.34,   735.0
 1323.74,   711.0
 1323.13,   727.0
 1322.53,   716.0
 1321.93,   723.0
 1321.32,   735.0
 1320.72,   734.0
 1320.12,   711.0
 1319.51,   730.0
 1318.91,   709.0
 1318.31,   703.0
 1317.70,   735.0
 1317.10,   705.0
 1316.49,   699.0
 1315.89,   707.0
 1315.29,   719.0
 1314.68,   717.0
 1314.08,   728.0
 1313.47,   717.0
 1312.87,   733.0
 1312.27,   738.0
 1311.66,   699.0
 1311.06,   747.0
 1310.45,   723.0
 1309.85,   715.0
 1309.24,   713.0
 1308.64,   715.0
 1308.04,   729.0
 1307.43,   715.0
 1306.83,   674.0
 1306.22,   730.0
 1305.62,   718.0
 1305.01,   741.0
 1304.41,   722.0
 1303.80,   726.0
 1303.20,   736.0
 1302.59,   704.0
 1301.99,   718.0
 1301.38,   719.0
 1300.78,   710.0
 1300.17,   740.0
 1299.57,   716.0
 1298.96,   731.0
 1298.36,   714.0
 1297.75,   731.0
 1297.15,   735.0
 1296.54,   726.0
 1295.94,   714.0
 1295.33,   721.0
 1294.73,   716.0
 1294.12,   716.0
 1293.51,   695.0
 1292.91,   726.0
 1292.30,   713.0
 1291.70,   692.0
 1291.09,   723.0
 1290.49,   701.0
 1289.88,   735.0
 1289.27,   743.0
 1288.67,   695.0
 1288.06,   717.0
 1287.46,   726.0
 1286.85,   757.0
 1286.24,   728.0
 1285.64,   730.0
 1285.03,   735.0
 1284.43,   741.0
 1283.82,   711.0
 1283.21,   728.0
 1282.61,   734.0
 1282.00,   734.0
 1281.39,   723.0
 1280.79,   713.0
 1280.18,   728.0
 1279.57,   746.0
 1278.97,   720.0
 1278.36,   751.0
 1277.75,   713.0
 1277.15,   726.0
 1276.54,   722.0
 1275.93,   731.0
 1275.33,   748.0
 1274.72,   716.0
 1274.11,   751.0
 1273.50,   724.0
 1272.90,   738.0
 1272.29,   766.0
 1271.68,   745.0
 1271.07,   737.0
 1270.47,   757.0
 1269.86,   756.0
 1269.25,   746.0
 1268.65,   763.0
 1268.04,   750.0
 1267.43,   756.0
 1266.82,   751.0
 1266.22,   761.0
 1265.61,   743.0
 1265.00,   771.0
 1264.39,   763.0
 1263.78,   745.0
 1263.18,   756.0
 1262.57,   778.0
 1261.96,   763.0
 1261.35,   742.0
 1260.74,   757.0
 1260.14,   759.0
 1259.53,   771.0
 1258.92,   768.0
 1258.31,   770.0
 1257.70,   770.0
 1257.09,   746.0
 1256.49,   766.0
 1255.88,   760.0
 1255.27,   769.0
 1254.66,   754.0
 1254.05,   777.0
 1253.44,   774.0
 1252.83,   755.0
 1252.23,   790.0
 1251.62,   752.0
 1251.01,   794.0
 1250.40,   799.0
 1249.79,   779.0
 1249.18,   786.0
 1248.57,   751.0
 1247.96,   780.0
 1247.35,   797.0
 1246.74,   810.0
 1246.14,   808.0
 1245.53,   784.0
 1244.92,   779.0
 1244.31,   791.0
 1243.70,   798.0
 1243.09,   813.0
 1242.48,   794.0
 1241.87,   803.0
 1241.26,   786.0
 1240.65,   800.0
 1240.04,   798.0
 1239.43,   824.0
 1238.82,   811.0
 1238.21,   805.0
 1237.60,   816.0
 1236.99,   807.0
 1236.38,   817.0
 1235.77,   821.0
 1235.16,   816.0
 1234.55,   840.0
 1233.94,   848.0
 1233.33,   844.0
 1232.72,   844.0
 1232.11,   846.0
 1231.50,   840.0
 1230.89,   839.0
 1230.28,   837.0
 1229.67,   852.0
 1229.06,   850.0
 1228.45,   852.0
 1227.84,   879.0
 1227.23,   835.0
 1226.62,   900.0
 1226.01,   877.0
 1225.39,   882.0
 1224.78,   900.0
 1224.17,   897.0
 1223.56,   902.0
 1222.95,   879.0
 1222.34,   926.0
 1221.73,   877.0
 1221.12,   905.0
 1220.51,   897.0
 1219.89,   926.0
 1219.28,   932.0
 1218.67,   937.0
 1218.06,   947.0
 1217.45,   975.0
 1216.84,   949.0
 1216.23,   951.0
 1215.62,   958.0
 1215.00,   962.0
 1214.39,   995.0
 1213.78,   985.0
 1213.17,   995.0
 1212.56,  1001.0
 1211.94,  1021.0
 1211.33,   996.0
 1210.72,   986.0
 1210.11,  1019.0
 1209.50,  1037.0
 1208.88,  1051.0
 1208.27,  1020.0
 1207.66,  1079.0
 1207.05,  1040.0
 1206.44,  1035.0
 1205.82,  1088.0
 1205.21,  1087.0
 1204.60,  1096.0
 1203.99,  1140.0
 1203.37,  1109.0
 1202.76,  1149.0
 1202.15,  1120.0
 1201.54,  1196.0
 1200.92,  1154.0
 1200.31,  1176.0
 1199.70,  1176.0
 1199.09,  1234.0
 1198.47,  1209.0
 1197.86,  1270.0
 1197.25,  1272.0
 1196.63,  1276.0
 1196.02,  1272.0
 1195.41,  1307.0
 1194.79,  1333.0
 1194.18,  1321.0
 1193.57,  1354.0
 1192.95,  1375.0
 1192.34,  1381.0
 1191.73,  1418.0
 1191.11,  1463.0
 1190.50,  1470.0
 1189.89,  1517.0
 1189.27,  1557.0
 1188.66,  1529.0
 1188.05,  1593.0
 1187.43,  1619.0
 1186.82,  1669.0
 1186.21,  1659.0
 1185.59,  1710.0
 1184.98,  1726.0
 1184.36,  1753.0
 1183.75,  1783.0
 1183.14,  1861.0
 1182.52,  1898.0
 1181.91,  1917.0
 1181.29,  1926.0
 1180.68,  2022.0
 1180.07,  2026.0
 1179.45,  2071.0
 1178.84,  2133.0
 1178.22,  2167.0
 1177.61,  2175.0
 1176.99,  2274.0
 1176.38,  2262.0
 1175.76,  2315.0
 1175.15,  2375.0
 1174.53,  2442.0
 1173.92,  2506.0
 1173.30,  2558.0
 1172.69,  2687.0
 1172.08,  2718.0
 1171.46,  2776.0
 1170.85,  2868.0
 1170.23,  2918.0
 1169.62,  3010.0
 1169.00,  3105.0
 1168.38,  3124.0
 1167.77,  3204.0
 1167.15,  3274.0
 1166.54,  3372.0
 1165.92,  3412.0
 1165.31,  3466.0
 1164.69,  3583.0
 1164.08,  3757.0
 1163.46,  3727.0
 1162.85,  3869.0
 1162.23,  4055.0
 1161.62,  4055.0
 1161.00,  4119.0
 1160.38,  4266.0
 1159.77,  4384.0
 1159.15,  4384.0
 1158.54,  4539.0
 1157.92,  4619.0
 1157.30,  4873.0
 1156.69,  4957.0
 1156.07,  5109.0
 1155.46,  5226.0
 1154.84,  5285.0
 1154.22,  5435.0
 1153.61,  5455.0
 1152.99,  5670.0
 1152.37,  5807.0
 1151.76,  5956.0
 1151.14,  6097.0
 1150.53,  6130.0
 1149.91,  6330.0
 1149.29,  6397.0
 1148.68,  6545.0
 1148.06,  6730.0
 1147.44,  6883.0
 1146.82,  7122.0
 1146.21,  7109.0
 1145.59,  7304.0
 1144.97,  7514.0
 1144.36,  7602.0
 1143.74,  7804.0
 1143.12,  7906.0
 1142.51,  8217.0
 1141.89,  8217.0
 1141.27,  8481.0
 1140.65,  8575.0
 1140.04,  8790.0
 1139.42,  8926.0
 1138.80,  9119.0
 1138.18,  9202.0
 1137.57,  9425.0
 1136.95,  9651.0
 1136.33,  9851.0
 1135.71,  9995.0
 1135.10, 10096.0
 1134.48, 10329.0
 1133.86, 10447.0
 1133.24, 10594.0
 1132.63, 10803.0
 1132.01, 10967.0
 1131.39, 11164.0
 1130.77, 11377.0
 1130.15, 11499.0
 1129.54, 11746.0
 1128.92, 11932.0
 1128.30, 12057.0
 1127.68, 12182.0
 1127.06, 12418.0
 1126.44, 12672.0
 1125.82, 12848.0
 1125.21, 12912.0
 1124.59, 13170.0
 1123.97, 13316.0
 1123.35, 13527.0
 1122.73, 13576.0
 1122.11, 13773.0
 1121.49, 14103.0
 1120.88, 14236.0
 1120.26, 14336.0
 1119.64, 14536.0
 1119.02, 14754.0
 1118.40, 14822.0
 1117.78, 15024.0
 1117.16, 15126.0
 1116.54, 15432.0
 1115.92, 15501.0
 1115.30, 15621.0
 1114.69, 15741.0
 1114.07, 15896.0
 1113.45, 16051.0
 1112.83, 16189.0
 1112.21, 16398.0
 1111.59, 16398.0
 1110.97, 16729.0
 1110.35, 16782.0
 1109.73, 16975.0
 1109.11, 16958.0
 1108.49, 16958.0
 1107.87, 17010.0
 1107.25, 17257.0
 1106.63, 17239.0
 1106.01, 17310.0
 1105.39, 17292.0
 1104.77, 17523.0
 1104.15, 17434.0
 1103.53, 17558.0
 1102.91, 17612.0
 1102.29, 17434.0
 1101.67, 17558.0
 1101.05, 17612.0
 1100.43, 17523.0
 1099.81, 17540.0
 1099.19, 17434.0
 1098.57, 17523.0
 1097.95, 17434.0
 1097.33, 17363.0
 1096.71, 17257.0
 1096.09, 17151.0
 1095.46, 17134.0
 1094.84, 16958.0
 1094.22, 16958.0
 1093.60, 16870.0
 1092.98, 16729.0
 1092.36, 16537.0
 1091.74, 16572.0
 1091.12, 16328.0
 1090.50, 16276.0
 1089.88, 16207.0
 1089.26, 16016.0
 1088.63, 15878.0
 1088.01, 15724.0
 1087.39, 15724.0
 1086.77, 15518.0
 1086.15, 15432.0
 1085.53, 15262.0
 1084.91, 15092.0
 1084.28, 15024.0
 1083.66, 14754.0
 1083.04, 14570.0
 1082.42, 14503.0
 1081.80, 14236.0
 1081.17, 14004.0
 1080.55, 13954.0
 1079.93, 13707.0
 1079.31, 13691.0
 1078.69, 13446.0
 1078.07, 13170.0
 1077.44, 13073.0
 1076.82, 12832.0
 1076.20, 12784.0
 1075.58, 12545.0
 1074.95, 12355.0
 1074.33, 12276.0
 1073.71, 12151.0
 1073.09, 11916.0
 1072.46, 11715.0
 1071.84, 11576.0
 1071.22, 11438.0
 1070.60, 11224.0
 1069.97, 11088.0
 1069.35, 10922.0
 1068.73, 10788.0
 1068.11, 10683.0
 1067.48, 10461.0
 1066.86, 10373.0
 1066.24, 10256.0
 1065.61, 10052.0
 1064.99,  9865.0
 1064.37,  9751.0
 1063.74,  9694.0
 1063.12,  9453.0
 1062.50,  9369.0
 1061.87,  9188.0
 1061.25,  9077.0
 1060.63,  9009.0
 1060.00,  8709.0
 1059.38,  8655.0
 1058.76,  8534.0
 1058.13,  8468.0
 1057.51,  8335.0
 1056.89,  8217.0
 1056.26,  8113.0
 1055.64,  8009.0
 1055.02,  7817.0
 1054.39,  7690.0
 1053.77,  7514.0
 1053.14,  7539.0
 1052.52,  7341.0
 1051.90,  7255.0
 1051.27,  7243.0
 1050.65,  7158.0
 1050.02,  6978.0
 1049.40,  6859.0
 1048.77,  6824.0
 1048.15,  6707.0
 1047.53,  6591.0
 1046.90,  6476.0
 1046.28,  6341.0
 1045.65,  6229.0
 1045.03,  6207.0
 1044.40,  6064.0
 1043.78,  6042.0
 1043.15,  6021.0
 1042.53,  5828.0
 1041.90,  5712.0
 1041.28,  5691.0
 1040.65,  5587.0
 1040.03,  5557.0
 1039.40,  5424.0
 1038.78,  5424.0
 1038.15,  5275.0
 1037.53,  5236.0
 1036.90,  5158.0
 1036.28,  5128.0
 1035.65,  5052.0
 1035.03,  4976.0
 1034.40,  4845.0
 1033.78,  4882.0
 1033.15,  4772.0
 1032.53,  4699.0
 1031.90,  4619.0
 1031.27,  4610.0
 1030.65,  4522.0
 1030.02,  4522.0
 1029.40,  4384.0
 1028.77,  4384.0
 1028.15,  4333.0
 1027.52,  4250.0
 1026.89,  4233.0
 1026.27,  4192.0
 1025.64,  4095.0
 1025.02,  3992.0
 1024.39,  4047.0
 1023.76,  3961.0
 1023.14,  3892.0
 1022.51,  3907.0
 1021.88,  3839.0
 1021.26,  3854.0
 1020.63,  3809.0
 1020.01,  3727.0
 1019.38,  3727.0
 1018.75,  3676.0
 1018.13,  3612.0
 1017.50,  3562.0
 1016.87,  3576.0
 1016.25,  3521.0
 1015.62,  3521.0
 1014.99,  3452.0
 1014.36,  3466.0
 1013.74,  3432.0
 1013.11,  3378.0
 1012.48,  3378.0
 1011.86,  3345.0
 1011.23,  3365.0
 1010.60,  3242.0
 1009.97,  3274.0
 1009.35,  3216.0
 1008.72,  3167.0
 1008.09,  3191.0
 1007.47,  3124.0
 1006.84,  3057.0
 1006.21,  3142.0
 1005.58,  3057.0
 1004.96,  3105.0
 1004.33,  3063.0
 1003.70,  3010.0
 1003.07,  3039.0
 1002.44,  2969.0
 1001.82,  2958.0
 1001.19,  2873.0
 1000.56,  2879.0
  999.93,  2857.0
  999.30,  2829.0
  998.68,  2813.0
  998.05,  2802.0
  997.42,  2797.0
  996.79,  2802.0
  996.16,  2744.0
  995.53,  2728.0
  994.91,  2744.0
  994.28,  2702.0
  993.65,  2713.0
  993.02,  2749.0
  992.39,  2702.0
  991.76,  2682.0
  991.13,  2636.0
  990.51,  2636.0
  989.88,  2607.0
  989.25,  2636.0
  988.62,  2636.0
  987.99,  2597.0
  987.36,  2525.0
  986.73,  2587.0
  986.10,  2597.0
  985.47,  2582.0
  984.85,  2530.0
  984.22,  2478.0
  983.59,  2483.0
  982.96,  2483.0
  982.33,  2474.0
  981.70,  2511.0
  981.07,  2487.0
  980.44,  2474.0
  979.81,  2446.0
  979.18,  2446.0
  978.55,  2469.0
  977.92,  2433.0
  977.29,  2401.0
  976.66,  2406.0
  976.03,  2433.0
  975.40,  2415.0
  974.77,  2362.0
  974.14,  2362.0
  973.51,  2362.0
  972.88,  2336.0
  972.25,  2324.0
  971.62,  2303.0
  970.99,  2303.0
  970.36,  2270.0
  969.73,  2311.0
  969.10,  2266.0
  968.47,  2250.0
  967.84,  2229.0
  967.21,  2175.0
  966.58,  2171.0
  965.95,  2233.0
  965.32,  2198.0
  964.69,  2237.0
  964.06,  2218.0
  963.42,  2202.0
  962.79,  2148.0
  962.16,  2229.0
  961.53,  2206.0
  960.90,  2190.0
  960.27,  2152.0
  959.64,  2186.0
  959.01,  2194.0
  958.38,  2179.0
  957.74,  2229.0
  957.11,  2198.0
  956.48,  2152.0
  955.85,  2156.0
  955.22,  2179.0
  954.59,  2182.0
  953.96,  2206.0
  953.33,  2229.0
  952.69,  2190.0
  952.06,  2210.0
  951.43,  2229.0
  950.80,  2237.0
  950.17,  2237.0
  949.53,  2194.0
  948.90,  2198.0
  948.27,  2229.0
  947.64,  2202.0
  947.01,  2258.0
  946.37,  2233.0
  945.74,  2214.0
  945.11,  2198.0
  944.48,  2210.0
  943.85,  2179.0
  943.21,  2241.0
  942.58,  2258.0
  941.95,  2233.0
  941.32,  2233.0
  940.68,  2214.0
  940.05,  2214.0
  939.42,  2186.0
  938.79,  2190.0
  938.15,  2186.0
  937.52,  2167.0
  936.89,  2198.0
  936.25,  2156.0
  935.62,  2129.0
  934.99,  2107.0
  934.35,  2137.0
  933.72,  2107.0
  933.09,  2075.0
  932.46,  2100.0
  931.82,  2075.0
  931.19,  1998.0
  930.56,  1952.0
  929.92,  1945.0
  929.29,  1949.0
  928.66,  1923.0
  928.02,  1907.0
  927.39,  1858.0
  926.75,  1783.0
  926.12,  1753.0
  925.49,  1803.0
  924.85,  1753.0
  924.22,  1710.0
  923.59,  1718.0
  922.95,  1652.0
  922.32,  1650.0
  921.68,  1614.0
  921.05,  1609.0
  920.42,  1562.0
  919.78,  1536.0
  919.15,  1557.0
  918.51,  1476.0
  917.88,  1474.0
  917.24,  1467.0
  916.61,  1446.0
  915.98,  1444.0
  915.34,  1416.0
  914.71,  1391.0
  914.07,  1365.0
  913.44,  1355.0
  912.80,  1377.0
  912.17,  1345.0
  911.53,  1323.0
  910.90,  1300.0
  910.26,  1320.0
  909.63,  1295.0
  908.99,  1253.0
  908.36,  1238.0
  907.72,  1209.0
  907.09,  1217.0
  906.45,  1178.0
  905.82,  1235.0
  905.18,  1190.0
  904.55,  1171.0
  903.91,  1171.0
  903.28,  1169.0
  902.64,  1149.0
  902.01,  1133.0
  901.37,  1150.0
  900.74,  1104.0
  900.10,  1150.0
  899.46,  1116.0
  898.83,  1101.0
  898.19,  1124.0
  897.56,  1086.0
  896.92,  1073.0
  896.28,  1055.0
  895.65,  1048.0
  895.01,  1078.0
  894.38,  1051.0
  893.74,  1078.0
  893.10,  1063.0
  892.47,  1062.0
  891.83,  1026.0
  891.20,  1029.0
  890.56,   995.0
  889.92,  1044.0
  889.29,   994.0
  888.65,  1042.0
  888.01,   984.0
  887.38,  1020.0
  886.74,   998.0
  886.10,  1001.0
  885.47,   989.0
  884.83,   996.0
  884.19,   975.0
  883.56,   977.0
  882.92,   989.0
  882.28,   982.0
  881.64,  1012.0
  881.01,   995.0
  880.37,   939.0
  879.73,   976.0
  879.10,   950.0
  878.46,   962.0
  877.82,   947.0
  877.18,   956.0
  876.55,   936.0
  875.91,   963.0
  875.27,   920.0
  874.63,   926.0
  874.00,   950.0
  873.36,   916.0
  872.72,   907.0
  872.08,   900.0
  871.45,   885.0
  870.81,   927.0
  870.17,   912.4
  869.53,   911.6
  868.89,   916.7
  868.26,   934.8
  867.62,   909.9
  866.98,   922.8
  866.34,   903.9
  865.70,   909.2
  865.06,   915.6
  864.43,   921.2
  863.79,   922.3
  863.15,   920.0
  862.51,   943.5
  861.87,   930.2
  861.23,   964.5
  860.59,   945.3
  859.96,   948.8
  859.32,   959.6
  858.68,   965.6
  858.04,   954.8
  857.40,   953.0
  856.76,   963.8
  856.12,   971.7
  855.48,  1005.8
  854.84,   984.0
  854.21,   989.8
  853.57,  1029.1
  852.93,  1026.3
  852.29,  1033.0
  851.65,  1041.0
  851.01,  1065.1
  850.37,  1083.6
  849.73,  1057.4
  849.09,  1088.0
  848.45,  1099.2
  847.81,  1127.2
  847.17,  1088.1
  846.53,  1137.0
  845.89,  1143.3
  845.25,  1162.4
  844.61,  1179.2
  843.97,  1203.2
  843.33,  1193.7
  842.69,  1212.0
  842.05,  1217.1
  841.41,  1256.4
  840.77,  1243.2
  840.13,  1266.4
  839.49,  1222.4
  840.22,  1267.0
  839.59,  1196.0
  838.95,  1210.0
  838.31,  1190.0
  837.68,  1239.0
  837.04,  1170.0
  836.40,  1239.0
  835.77,  1186.0
  835.13,  1150.0
  834.49,  1188.0
  833.86,  1119.0
  833.22,  1142.0
  832.58,  1149.0
  831.94,  1097.0
  831.31,  1124.0
  830.67,  1147.0
  830.03,  1098.0
  829.39,  1087.0
  828.76,  1136.0
  828.12,  1103.0
  827.48,  1147.0
  826.84,  1085.0
  826.21,  1076.0
  825.57,  1113.0
  824.93,  1105.0
  824.29,  1104.0
  823.65,  1124.0
  823.02,  1117.0
  822.38,  1126.0
  821.74,  1129.0
  821.10,  1089.0
  820.46,  1113.0
  819.83,  1125.0
  819.19,  1117.0
  818.55,  1138.0
  817.91,  1166.0
  817.27,  1157.0
  816.63,  1131.0
  816.00,  1183.0
  815.36,  1186.0
  814.72,  1200.0
  814.08,  1230.0
  813.44,  1217.0
  812.80,  1206.0
  812.16,  1210.0
  811.52,  1213.0
  810.88,  1218.0
  810.25,  1249.0
  809.61,  1249.0
  808.97,  1265.0
  808.33,  1266.0
  807.69,  1300.0
  807.05,  1320.0
  806.41,  1307.0
  805.77,  1362.0
  805.13,  1355.0
  804.49,  1334.0
  803.85,  1391.0
  803.21,  1357.0
  802.57,  1375.0
  801.94,  1400.0
  801.30,  1444.0
  800.66,  1414.0
  800.02,  1480.0
  799.38,  1449.0
  798.74,  1438.0
  798.10,  1507.0
  797.46,  1517.0
  796.82,  1515.0
  796.18,  1525.0
  795.54,  1557.0
  794.90,  1540.0
  794.26,  1577.0
  793.62,  1595.0
  792.97,  1623.0
  792.33,  1630.0
  791.69,  1640.0
  791.05,  1626.0
  790.41,  1682.0
  789.77,  1645.0
  789.13,  1679.0
  788.49,  1700.0
  787.85,  1689.0
  787.21,  1788.0
  786.57,  1753.0
  785.93,  1783.0
  785.29,  1728.0
  784.65,  1797.0
  784.00,  1780.0
  783.36,  1820.0
  782.72,  1800.0
  782.08,  1811.0
  781.44,  1803.0
  780.80,  1849.0
  780.16,  1832.0
  779.52,  1829.0
  778.87,  1837.0
  778.23,  1892.0
  777.59,  1858.0
  776.95,  1926.0
  776.31,  1882.0
  775.67,  1879.0
  775.03,  1949.0
  774.38,  1945.0
  773.74,  1978.0
  773.10,  1945.0
  772.46,  1952.0
  771.82,  1952.0
  771.17,  1978.0
  770.53,  1958.0
  769.89,  2008.0
  769.25,  1975.0
  768.60,  2029.0
  767.96,  2015.0
  767.32,  1998.0
  766.68,  2050.0
  766.04,  2050.0
  765.39,  2012.0
  764.75,  2050.0
  764.11,  2050.0
  763.46,  1998.0
  762.82,  2022.0
  762.18,  2012.0
  761.54,  2133.0
  760.89,  2050.0
  760.25,  2071.0
  759.61,  2050.0
  758.96,  2060.0
  758.32,  2064.0
  757.68,  2111.0
  757.04,  2078.0
  756.39,  2118.0
  755.75,  2057.0
  755.11,  2050.0
  754.46,  2082.0
  753.82,  2118.0
  753.18,  2111.0
  752.53,  2107.0
  751.89,  2089.0
  751.24,  2085.0
  750.60,  2107.0
  749.96,  2064.0
  749.31,  2050.0
  748.67,  2039.0
  748.03,  2053.0
  747.38,  2078.0
  746.74,  2144.0
  746.09,  2064.0
  745.45,  2111.0
  744.81,  2107.0
  744.16,  2050.0
  743.52,  2078.0
  742.87,  2064.0
  742.23,  2118.0
  741.58,  2053.0
  740.94,  2050.0
  740.30,  2060.0
  739.65,  2050.0
  739.01,  2036.0
  738.36,  2078.0
  737.72,  2053.0
  737.07,  2032.0
  736.43,  2050.0
  735.78,  2032.0
  735.14,  2060.0
  734.49,  2043.0
  733.85,  2071.0
  733.20,  2082.0
  732.56,  2039.0
  731.91,  2026.0
  731.27,  1998.0
  730.62,  2060.0
  729.98,  2008.0
  729.33,  2022.0
  728.69,  2050.0
  728.04,  2026.0
  727.40,  2002.0
  726.75,  2078.0
  726.10,  2050.0
  725.46,  2071.0
  724.81,  2022.0
  724.17,  2050.0
  723.52,  2050.0
  722.88,  2057.0
  722.23,  2075.0
  721.58,  2060.0
  720.94,  2064.0
  720.29,  2068.0
  719.65,  2012.0
  719.00,  2039.0
  718.35,  2068.0
  717.71,  2078.0
  717.06,  2057.0
  716.42,  2050.0
  715.77,  2064.0
  715.12,  2089.0
  714.48,  2078.0
  713.83,  2118.0
  713.18,  2122.0
  712.54,  2082.0
  711.89,  2107.0
  711.24,  2115.0
  710.60,  2144.0
  709.95,  2082.0
  709.30,  2167.0
  708.66,  2100.0
  708.01,  2206.0
  707.36,  2137.0
  706.71,  2152.0
  706.07,  2210.0
  705.42,  2202.0
  704.77,  2186.0
  704.13,  2186.0
  703.48,  2210.0
  702.83,  2241.0
  702.18,  2210.0
  701.54,  2262.0
  700.89,  2307.0
  700.24,  2270.0
  699.59,  2274.0
  698.94,  2328.0
  698.30,  2278.0
  697.65,  2294.0
  697.00,  2336.0
  696.35,  2307.0
  695.71,  2345.0
  695.06,  2362.0
  694.41,  2375.0
  693.76,  2474.0
  693.11,  2380.0
  692.47,  2451.0
  691.82,  2433.0
  691.17,  2469.0
  690.52,  2460.0
  689.87,  2492.0
  689.22,  2487.0
  688.58,  2520.0
  687.93,  2582.0
  687.28,  2520.0
  686.63,  2544.0
  685.98,  2631.0
  685.33,  2582.0
  684.68,  2667.0
  684.03,  2662.0
  683.39,  2713.0
  682.74,  2682.0
  682.09,  2626.0
  681.44,  2733.0
  680.79,  2792.0
  680.14,  2846.0
  679.49,  2835.0
  678.84,  2786.0
  678.19,  2857.0
  677.54,  2890.0
  676.89,  2924.0
  676.24,  2918.0
  675.59,  2952.0
  674.94,  2993.0
  674.29,  3010.0
  673.65,  3010.0
  673.00,  3039.0
  672.35,  3117.0
  671.70,  3117.0
  671.05,  3069.0
  670.40,  3142.0
  669.75,  3223.0
  669.10,  3160.0
  668.45,  3204.0
  667.80,  3261.0
  667.15,  3274.0
  666.50,  3345.0
  665.84,  3372.0
  665.19,  3412.0
  664.54,  3445.0
  663.89,  3412.0
  663.24,  3425.0
  662.59,  3548.0
  661.94,  3521.0
  661.29,  3534.0
  660.64,  3612.0
  659.99,  3669.0
  659.34,  3749.0
  658.69,  3757.0
  658.04,  3749.0
  657.39,  3877.0
  656.74,  3809.0
  656.08,  3892.0
  655.43,  3930.0
  654.78,  3969.0
  654.13,  4016.0
  653.48,  4000.0
  652.83,  4135.0
  652.18,  4127.0
  651.53,  4184.0
  650.87,  4184.0
  650.22,  4266.0
  649.57,  4250.0
  648.92,  4358.0
  648.27,  4367.0
  647.62,  4452.0
  646.96,  4461.0
  646.31,  4557.0
  645.66,  4583.0
  645.01,  4663.0
  644.36,  4627.0
  643.70,  4827.0
  643.05,  4864.0
  642.40,  4891.0
  641.75,  4938.0
  641.10,  5061.0
  640.44,  5061.0
  639.79,  5119.0
  639.14,  5187.0
  638.49,  5265.0
  637.83,  5374.0
  637.18,  5334.0
  636.53,  5424.0
  635.88,  5516.0
  635.22,  5505.0
  634.57,  5670.0
  633.92,  5754.0
  633.26,  5807.0
  632.61,  5764.0
  631.96,  6010.0
  631.31,  6064.0
  630.65,  6097.0
  630.00,  6207.0
  629.35,  6307.0
  628.69,  6330.0
  628.04,  6397.0
  627.39,  6465.0
  626.73,  6522.0
  626.08,  6637.0
  625.43,  6730.0
  624.77,  6824.0
  624.12,  6954.0
  623.47,  6966.0
  622.81,  7061.0
  622.16,  7134.0
  621.51,  7267.0
  620.85,  7243.0
  620.20,  7477.0
  619.54,  7464.0
  618.89,  7564.0
  618.24,  7715.0
  617.58,  7740.0
  616.93,  7855.0
  616.27,  7957.0
  615.62,  8022.0
  614.96,  8152.0
  614.31,  8152.0
  613.66,  8362.0
  613.00,  8441.0
  612.35,  8575.0
  611.69,  8601.0
  611.04,  8695.0
  610.38,  8899.0
  609.73,  9009.0
  609.07,  9036.0
  608.42,  9160.0
  607.76,  9188.0
  607.11,  9341.0
  606.45,  9439.0
  605.80,  9594.0
  605.14,  9637.0
  604.49,  9751.0
  603.83,  9879.0
  603.18,  9951.0
  602.52, 10096.0
  601.87, 10052.0
  601.21, 10227.0
  600.56, 10271.0
  599.90, 10447.0
  599.25, 10447.0
  598.59, 10491.0
  597.93, 10461.0
  597.28, 10713.0
  596.62, 10698.0
  595.97, 10683.0
  595.31, 10803.0
  594.66, 10758.0
  594.00, 10847.0
  593.34, 10847.0
  592.69, 10847.0
  592.03, 10967.0
  591.38, 10967.0
  590.72, 10952.0
  590.06, 11013.0
  589.41, 10922.0
  588.75, 10922.0
  588.09, 10892.0
  587.44, 10817.0
  586.78, 10773.0
  586.13, 10817.0
  585.47, 10728.0
  584.81, 10758.0
  584.16, 10609.0
  583.50, 10713.0
  582.84, 10565.0
  582.18, 10461.0
  581.53, 10476.0
  580.87, 10358.0
  580.21, 10285.0
  579.56, 10212.0
  578.90, 10110.0
  578.24, 10212.0
  577.59, 10096.0
  576.93, 10096.0
  576.27,  9995.0
  575.61, 10096.0
  574.96, 10038.0
  574.30,  9937.0
  573.64,  9995.0
  572.98,  9980.0
  572.33,  9822.0
  571.67,  9865.0
  571.01,  9851.0
  570.35,  9865.0
  569.70,  9793.0
  569.04,  9894.0
  568.38,  9765.0
  567.72,  9779.0
  567.06,  9751.0
  566.40,  9651.0
  565.75,  9623.0
  565.09,  9538.0
  564.43,  9651.0
  563.77,  9524.0
  563.11,  9679.0
  562.46,  9453.0
  561.80,  9453.0
  561.14,  9397.0
  560.48,  9481.0
  559.82,  9467.0
  559.16,  9369.0
  558.50,  9369.0
  557.85,  9341.0
  557.19,  9341.0
  556.53,  9271.0
  555.87,  9341.0
  555.21,  9299.0
  554.55,  9243.0
  553.89,  9133.0
  553.23,  9230.0
  552.57,  9105.0
  551.91,  9077.0
  551.25,  9077.0
  550.60,  9091.0
  549.94,  9077.0
  549.28,  9077.0
  548.62,  9009.0
  547.96,  9119.0
  547.30,  9077.0
  546.64,  8940.0
  545.98,  8981.0
  545.32,  8995.0
  544.66,  8913.0
  544.00,  8872.0
  543.34,  8872.0
  542.68,  8981.0
  542.02,  8967.0
  541.36,  8967.0
  540.70,  8981.0
  540.04,  8981.0
  539.38,  8954.0
  538.72,  9009.0
  538.06,  8899.0
  537.40,  9077.0
  536.74,  8940.0
  536.08,  8899.0
  535.42,  8899.0
  534.76,  8967.0
  534.10,  8913.0
  533.44,  9077.0
  532.77,  8995.0
  532.11,  8926.0
  531.45,  8995.0
  530.79,  8967.0
  530.13,  8926.0
  529.47,  9077.0
  528.81,  9036.0
  528.15,  8967.0
  527.49,  9077.0
  526.83,  9009.0
  526.16,  8926.0
  525.50,  8995.0
  524.84,  8967.0
  524.18,  8913.0
  523.52,  9077.0
  522.86,  9077.0
  522.20,  9091.0
  521.53,  9050.0
  520.87,  9091.0
  520.21,  9091.0
  519.55,  8995.0
  518.89,  8995.0
  518.23,  9077.0
  517.56,  8981.0
  516.90,  8926.0
  516.24,  8981.0
  515.58,  9133.0
  514.92,  8981.0
  514.25,  9119.0
  513.59,  9050.0
  512.93,  8926.0
  512.27,  9077.0
  511.60,  9077.0
  510.94,  9036.0
  510.28,  8899.0
  509.62,  8913.0
  508.95,  8899.0
  508.29,  8926.0
  507.63,  8981.0
  506.97,  8899.0
  506.30,  8899.0
  505.64,  8899.0
  504.98,  8913.0
  504.31,  8872.0
  503.65,  8804.0
  502.99,  8858.0
  502.33,  8872.0
  501.66,  8763.0
  501.00,  8695.0
  500.34,  8763.0
  499.67,  8750.0
  499.01,  8695.0
  498.35,  8669.0
  497.68,  8709.0
  497.02,  8695.0
  496.36,  8642.0
  495.69,  8588.0
  495.03,  8468.0
  494.36,  8468.0
  493.70,  8642.0
  493.04,  8481.0
  492.37,  8481.0
  491.71,  8468.0
  491.04,  8388.0
  490.38,  8296.0
  489.72,  8322.0
  489.05,  8283.0
  488.39,  8362.0
  487.72,  8256.0
  487.06,  8178.0
  486.40,  8152.0
  485.73,  8061.0
  485.07,  8048.0
  484.40,  8113.0
  483.74,  8113.0
  483.07,  8152.0
  482.41,  7932.0
  481.74,  7970.0
  481.08,  7919.0
  480.41,  7906.0
  479.75,  7817.0
  479.08,  7842.0
  478.42,  7842.0
  477.75,  7804.0
  477.09,  7715.0
  476.42,  7728.0
  475.76,  7602.0
  475.09,  7602.0
  474.43,  7602.0
  473.76,  7539.0
  473.10,  7514.0
  472.43,  7502.0
  471.77,  7365.0
  471.10,  7502.0
  470.44,  7440.0
  469.77,  7353.0
  469.10,  7464.0
  468.44,  7243.0
  467.77,  7304.0
  467.11,  7402.0
  466.44,  7316.0
  465.77,  7292.0
  465.11,  7219.0
  464.44,  7206.0
  463.78,  7206.0
  463.11,  7158.0
  462.44,  7109.0
  461.78,  7170.0
  461.11,  7049.0
  460.45,  7109.0
  459.78,  7049.0
  459.11,  7013.0
  458.45,  6978.0
  457.78,  6978.0
  457.11,  6942.0
  456.45,  7013.0
  455.78,  6883.0
  455.11,  6894.0
  454.45,  6871.0
  453.78,  6824.0
  453.11,  6859.0
  452.44,  6835.0
  451.78,  6718.0
  451.11,  6695.0
  450.44,  6800.0
  449.78,  6707.0
  449.11,  6765.0
  448.44,  6730.0
  447.77,  6649.0
  447.11,  6753.0
  446.44,  6579.0
  445.77,  6545.0
  445.10,  6637.0
  444.44,  6545.0
  443.77,  6579.0
  443.10,  6649.0
  442.43,  6556.0
  441.77,  6556.0
  441.10,  6545.0
  440.43,  6476.0
  439.76,  6556.0
  439.09,  6476.0
  438.43,  6465.0
  437.76,  6454.0
  437.09,  6375.0
  436.42,  6420.0
  435.75,  6397.0
  435.08,  6341.0
  434.42,  6330.0
  433.75,  6488.0
  433.08,  6375.0
  432.41,  6397.0
  431.74,  6330.0
  431.07,  6386.0
  430.40,  6352.0
  429.74,  6285.0
  429.07,  6307.0
  428.40,  6274.0
  427.73,  6274.0
  427.06,  6218.0
  426.39,  6185.0
  425.72,  6163.0
  425.05,  6274.0
  424.38,  6130.0
  423.71,  6108.0
  423.04,  6163.0
  422.38,  6207.0
  421.71,  6108.0
  421.04,  6152.0
  420.37,  6042.0
  419.70,  6053.0
  419.03,  5977.0
  418.36,  6010.0
  417.69,  6032.0
  417.02,  5977.0
  416.35,  6021.0
  415.68,  5924.0
  415.01,  6075.0
  414.34,  6021.0
  413.67,  5999.0
  413.00,  5934.0
  412.33,  5849.0
  411.66,  5967.0
  410.99,  5838.0
  410.32,  5849.0
  409.65,  5870.0
  408.98,  5902.0
  408.31,  5849.0
  407.64,  5828.0
  406.97,  5892.0
  406.30,  5838.0
  405.62,  5881.0
  404.95,  5828.0
  404.28,  5870.0
  403.61,  5754.0
  402.94,  5796.0
  402.27,  5785.0
  401.60,  5775.0
  400.93,  5817.0
  400.26,  5775.0
  399.59,  5754.0
  398.92,  5733.0
  398.24,  5670.0
  397.57,  5754.0
  396.90,  5701.0
  396.23,  5764.0
  395.56,  5629.0
  394.89,  5670.0
  394.22,  5608.0
  393.54,  5701.0
  392.87,  5681.0
  392.20,  5608.0
  391.53,  5639.0
  390.86,  5670.0
  390.18,  5598.0
  389.51,  5598.0
  388.84,  5618.0
  388.17,  5618.0
  387.50,  5618.0
  386.82,  5701.0
  386.15,  5587.0
  385.48,  5608.0
  384.81,  5536.0
  384.14,  5557.0
  383.46,  5536.0
  382.79,  5546.0
  382.12,  5608.0
  381.45,  5526.0
  380.77,  5526.0
  380.10,  5546.0
  379.43,  5505.0
  378.75,  5526.0
  378.08,  5567.0
  377.41,  5536.0
  376.74,  5455.0
  376.06,  5516.0
  375.39,  5435.0
  374.72,  5424.0
  374.04,  5485.0
  373.37,  5445.0
  372.70,  5455.0
  372.02,  5536.0
  371.35,  5424.0
  370.68,  5424.0
  370.00,  5475.0
  369.33,  5495.0
  368.66,  5505.0
  367.98,  5475.0
  367.31,  5455.0
  366.64,  5475.0
  365.96,  5374.0
  365.29,  5475.0
  364.61,  5485.0
  363.94,  5445.0
  363.27,  5435.0
  362.59,  5455.0
  361.92,  5445.0
  361.24,  5475.0
  360.57,  5455.0
  359.90,  5505.0
  359.22,  5424.0
  358.55,  5475.0
  357.87,  5424.0
  357.20,  5374.0
  356.52,  5485.0
  355.85,  5424.0
  355.17,  5505.0
  354.50,  5455.0
  353.83,  5445.0
  353.15,  5435.0
  352.48,  5475.0
  351.80,  5455.0
  351.13,  5505.0
  350.45,  5475.0
  349.78,  5424.0
  349.10,  5455.0
  348.43,  5424.0
  347.75,  5424.0
  347.08,  5455.0
  346.40,  5374.0
  345.72,  5455.0
  345.05,  5384.0
  344.37,  5435.0
  343.70,  5424.0
  343.02,  5374.0
  342.35,  5394.0
  341.67,  5435.0
  341.00,  5374.0
  340.32,  5384.0
  339.64,  5424.0
  338.97,  5394.0
  338.29,  5394.0
  337.62,  5424.0
  336.94,  5374.0
  336.26,  5364.0
  335.59,  5394.0
  334.91,  5384.0
  334.24,  5374.0
  333.56,  5455.0
  332.88,  5424.0
  332.21,  5455.0
  331.53,  5334.0
  330.85,  5424.0
  330.18,  5384.0
  329.50,  5505.0
  328.82,  5404.0
  328.15,  5465.0
  327.47,  5475.0
  326.79,  5445.0
  326.12,  5475.0
  325.44,  5526.0
  324.76,  5557.0
  324.09,  5455.0
  323.41,  5455.0
  322.73,  5475.0
  322.05,  5475.0
  321.38,  5465.0
  320.70,  5505.0
  320.02,  5465.0
  319.34,  5455.0
  318.67,  5445.0
  317.99,  5475.0
  317.31,  5424.0
  316.63,  5526.0
  315.96,  5435.0
  315.28,  5505.0
  314.60,  5435.0
  313.92,  5374.0
  313.25,  5435.0
  312.57,  5364.0
  311.89,  5394.0
  311.21,  5334.0
  310.53,  5394.0
  309.86,  5394.0
  309.18,  5424.0
  308.50,  5374.0
  307.82,  5364.0
  307.14,  5344.0
  306.46,  5344.0
  305.79,  5354.0
  305.11,  5344.0
  304.43,  5344.0
  303.75,  5364.0
  303.07,  5354.0
  302.39,  5285.0
  301.71,  5344.0
  301.03,  5324.0
  300.36,  5354.0
  299.68,  5295.0
  299.00,  5364.0
  298.32,  5424.0
  297.64,  5354.0
  296.96,  5354.0
  296.28,  5344.0
  295.60,  5314.0
  294.92,  5275.0
  294.24,  5295.0
  293.56,  5236.0
  292.88,  5344.0
  292.20,  5324.0
  291.52,  5216.0
  290.85,  5265.0
  290.17,  5275.0
  289.49,  5295.0
  288.81,  5265.0
  288.13,  5187.0
  287.45,  5187.0
  286.77,  5236.0
  286.09,  5275.0
  285.41,  5206.0
  284.73,  5206.0
  284.05,  5216.0
  283.37,  5216.0
  282.69,  5236.0
  282.01,  5138.0
  281.32,  5196.0
  280.64,  5196.0
  279.96,  5109.0
  279.28,  5295.0
  278.60,  5206.0
  277.92,  5119.0
  277.24,  5187.0
  276.56,  5187.0
  275.88,  5206.0
  275.20,  5138.0
  274.52,  5206.0
  273.84,  5138.0
  273.16,  5206.0
  272.47,  5138.0
  271.79,  5187.0
  271.11,  5138.0
  270.43,  5187.0
  269.75,  5109.0
  269.07,  5138.0
  268.39,  5071.0
  267.71,  5128.0
  267.02,  5119.0
  266.34,  5109.0
  265.66,  5138.0
  264.98,  5128.0
  264.30,  5196.0
  263.62,  5177.0
  262.93,  5109.0
  262.25,  5080.0
  261.57,  5187.0
  260.89,  5109.0
  260.21,  5119.0
  259.52,  5128.0
  258.84,  5119.0
  258.16,  5071.0
  257.48,  5061.0
  256.79,  5138.0
  256.11,  5138.0
  255.43,  5148.0
  254.75,  5119.0
  254.07,  5042.0
  253.38,  5061.0
  252.70,  5119.0
  252.02,  5080.0
  251.33,  5128.0
  250.65,  5119.0
  249.97,  5119.0
  249.29,  5109.0
  248.60,  5148.0
  247.92,  5109.0
  247.24,  5080.0
  246.55,  5004.0
  245.87,  5052.0
  245.19,  5148.0
  244.50,  5071.0
  243.82,  5187.0
  243.14,  5109.0
  242.45,  5138.0
  241.77,  5109.0
  241.09,  5071.0
  240.40,  5109.0
  239.72,  5128.0
  239.04,  5109.0
  238.35,  5187.0
  237.67,  5052.0
  236.98,  5138.0
  236.30,  5119.0
  235.62,  5109.0
  234.93,  5138.0
  234.25,  5187.0
  233.57,  5148.0
  232.88,  5206.0
  232.20,  5158.0
  231.51,  5265.0
  230.83,  5158.0
  230.14,  5158.0
  229.46,  5187.0
  228.77,  5109.0
  228.09,  5109.0
  227.41,  5128.0
  226.72,  5206.0
  226.04,  5216.0
  225.35,  5177.0
  224.67,  5226.0
  223.98,  5148.0
  223.30,  5138.0
  222.61,  5265.0
  221.93,  5187.0
  221.24,  5226.0
  220.56,  5138.0
  219.87,  5236.0
  219.19,  5206.0
  218.50,  5216.0
  217.82,  5196.0
  217.13,  5206.0
  216.44,  5128.0
  215.76,  5226.0
  215.07,  5177.0
  214.39,  5226.0
  213.70,  5275.0
  213.02,  5148.0
  212.33,  5236.0
  211.64,  5295.0
  210.96,  5177.0
  210.27,  5255.0
  209.59,  5265.0
  208.90,  5275.0
  208.21,  5265.0
  207.53,  5265.0
  206.84,  5265.0
  206.16,  5285.0
  205.47,  5295.0
  204.78,  5305.0
  204.10,  5295.0
  203.41,  5265.0
  202.72,  5314.0
  202.04,  5354.0
  201.35,  5275.0
  200.66,  5314.0
  199.98,  5314.0
  199.29,  5275.0
