1.838309999999999945e+03,-6.099861265211220598e+02
1.836750000000000000e+03,7.739432138935808325e+01
1.835180000000000064e+03,2.534606780817630352e+02
1.833609999999999900e+03,3.589701300295782858e+02
1.832049999999999955e+03,2.079597849717974896e+02
1.830480000000000018e+03,3.204754077153920662e+02
1.828910000000000082e+03,4.616141257143754046e+02
1.827339999999999918e+03,1.502559389687594376e+02
1.825779999999999973e+03,4.829787648312776582e+01
1.824210000000000036e+03,2.200458605332896695e+02
1.822640000000000100e+03,2.183969398388580885e+02
1.821069999999999936e+03,2.709111143998161424e+02
1.819500000000000000e+03,3.011283842161647044e+02
1.817930000000000064e+03,3.192287492879040656e+02
1.816359999999999900e+03,3.778122096150618745e+02
1.814789999999999964e+03,2.166787651975901099e+02
1.813220000000000027e+03,2.233684160355187487e+02
1.811650000000000091e+03,3.198011621288533206e+02
1.810079999999999927e+03,1.572170034775699605e+02
1.808500000000000000e+03,3.327791279421144282e+02
1.806930000000000064e+03,1.388011795166312368e+02
1.805359999999999900e+03,2.336463263465338969e+02
1.803789999999999964e+03,1.781456843182968441e+01
1.802210000000000036e+03,8.949172618544253055e+00
1.800640000000000100e+03,1.794436249296340975e+02
1.799069999999999936e+03,1.439611724961214350e+02
1.797490000000000009e+03,6.586514143460954074e+01
1.795920000000000073e+03,-6.581110077311313944e+01
1.794339999999999918e+03,-9.678088205325184390e+01
1.792769999999999982e+03,1.199490859648140031e+02
1.791190000000000055e+03,-1.075444553395936964e+01
1.789619999999999891e+03,1.348217327098973328e+02
1.788039999999999964e+03,-7.289554900750954403e+01
1.786470000000000027e+03,-5.837316053785616532e+01
1.784890000000000100e+03,-2.268419247390556848e+01
1.783309999999999945e+03,1.650791040104377316e+01
1.781740000000000009e+03,2.177796240668758401e+02
1.780160000000000082e+03,3.377579767231873120e+02
1.778579999999999927e+03,2.576994641904748278e+02
1.777000000000000000e+03,3.481640864687215071e+02
1.775430000000000064e+03,4.783082403011358110e+02
1.773849999999999909e+03,4.623191123607757618e+02
1.772269999999999982e+03,4.637331192313577048e+02
1.770690000000000055e+03,5.692902609129232587e+02
1.769109999999999900e+03,5.374905374054724234e+02
1.767529999999999973e+03,4.841939487089839531e+02
1.765950000000000045e+03,3.562604948234657058e+02
1.764369999999999891e+03,6.475301757489287411e+02
1.762789999999999964e+03,3.710029914853585069e+02
1.761210000000000036e+03,3.323589420327552943e+02
1.759619999999999891e+03,2.326818290536975837e+02
1.758039999999999964e+03,3.012440690636212821e+02
1.756460000000000036e+03,2.345494438845198601e+02
1.754880000000000109e+03,3.571779535163805122e+02
1.753289999999999964e+03,1.956734791096678236e+02
1.751710000000000036e+03,-2.537172179594199406e+01
1.750130000000000109e+03,-5.353787890577223152e+00
1.748539999999999964e+03,-2.188778376505069900e+00
1.746960000000000036e+03,-1.147045550086186267e+02
1.745369999999999891e+03,-6.887321622529270826e+01
1.743789999999999964e+03,-1.624027033948950702e+02
1.742200000000000045e+03,-2.203450353423249908e+02
1.740619999999999891e+03,-2.592082330494013149e+02
1.739029999999999973e+03,-3.511242357275841641e+02
1.737450000000000045e+03,-4.747411439721399802e+02
1.735859999999999900e+03,-3.979308173810859444e+02
1.734269999999999982e+03,-4.531573161723281373e+02
1.732690000000000055e+03,-4.777047803028035560e+02
1.731099999999999909e+03,-5.621849498248120653e+02
1.729509999999999991e+03,-5.124819447291156393e+02
1.727920000000000073e+03,-4.668357650157195167e+02
1.726329999999999927e+03,-2.695064106846184586e+02
1.724750000000000000e+03,-3.789781213979367749e+02
1.723160000000000082e+03,-2.446424377975854441e+02
1.721569999999999936e+03,-2.666635795795518789e+02
1.719980000000000018e+03,-2.940615467438256019e+02
1.718390000000000100e+03,-4.908763392903856584e+02
1.716799999999999955e+03,-3.107079572192596970e+02
1.715210000000000036e+03,-2.597364005304407328e+02
1.713609999999999900e+03,-4.621772897987611941e+02
1.712019999999999982e+03,-3.781593639083948801e+02
1.710430000000000064e+03,-3.853182634003242129e+02
1.708839999999999918e+03,-2.043139882745454088e+02
1.707250000000000000e+03,-3.066065385310939746e+02
1.705650000000000091e+03,-4.798514347884629387e+02
1.704059999999999945e+03,-1.099776158434542594e+02
1.702470000000000027e+03,-8.602062228074646555e+01
1.700869999999999891e+03,-5.745591469486680580e+01
1.699279999999999973e+03,5.964744806939415867e+01
1.697690000000000055e+03,1.139939854513359023e+02
1.696089999999999918e+03,-6.377170311951340409e+01
1.694500000000000000e+03,8.181203463980637025e+00
1.692900000000000091e+03,-9.485807584744907217e+01
1.691299999999999955e+03,2.212585951668734197e+01
1.689710000000000036e+03,-4.351670114432636183e+00
1.688109999999999900e+03,-5.654132549087080406e+01
1.686509999999999991e+03,1.066922338082440547e+02
1.684920000000000073e+03,1.266442679625106393e+02
1.683319999999999936e+03,4.414423652105324436e+01
1.681720000000000027e+03,1.181474197551506222e+02
1.680119999999999891e+03,5.539381766483711544e+01
1.678529999999999973e+03,2.939986101883405354e+02
1.676930000000000064e+03,2.569114173574344022e+02
1.675329999999999927e+03,2.520674392020882806e+02
1.673730000000000018e+03,1.171866757223178865e+02
1.672130000000000109e+03,3.127491269181118696e+02
1.670529999999999973e+03,1.823347927894792520e+02
1.668930000000000064e+03,1.744236733364086831e+02
1.667329999999999927e+03,3.201957685589295579e+02
1.665730000000000018e+03,2.751510784569909447e+02
1.664130000000000109e+03,2.750696030306280591e+02
1.662519999999999982e+03,3.380163632588009932e+02
1.660920000000000073e+03,2.530413372752955183e+02
1.659319999999999936e+03,2.704695259673753753e+02
1.657720000000000027e+03,1.276209293350038934e+02
1.656109999999999900e+03,1.163206488496361999e+02
1.654509999999999991e+03,1.263585016601282405e+02
1.652910000000000082e+03,-1.952043085379409604e+01
1.651299999999999955e+03,-5.345098682000389090e+01
1.649700000000000045e+03,-9.696346989108133130e+01
1.648089999999999918e+03,4.577246389459469356e+01
1.646490000000000009e+03,-2.413356973361806013e+01
1.644880000000000109e+03,-8.233114619606203632e+01
1.643279999999999973e+03,-8.307073038141243160e+01
1.641670000000000073e+03,-9.852181709198339377e+01
1.640059999999999945e+03,4.041035118203581078e+01
1.638460000000000036e+03,-4.595487931728712283e-01
1.636849999999999909e+03,-1.431008907672658097e+02
1.635240000000000009e+03,-2.745189777568011777e+02
1.633630000000000109e+03,-2.898338097617306630e+02
1.632029999999999973e+03,-2.291907907594722928e+02
1.630420000000000073e+03,-2.301791330125342938e+02
1.628809999999999945e+03,-1.130842202810090384e+02
1.627200000000000045e+03,-1.628660525648883777e+02
1.625589999999999918e+03,-1.073046298641711473e+02
1.623980000000000018e+03,-8.307995217888674233e+01
1.622369999999999891e+03,-1.961720195090019843e+02
1.620759999999999991e+03,-3.641408318545363727e+02
1.619150000000000091e+03,-3.845463892154875793e+02
1.617539999999999964e+03,-3.891286915918462910e+02
1.615930000000000064e+03,-3.707477389836203656e+02
1.614309999999999945e+03,-3.828179050231410656e+02
1.612700000000000045e+03,-5.436504222284420393e+02
1.611089999999999918e+03,-4.743396844491653610e+02
1.609480000000000018e+03,-5.008256916852988070e+02
1.607859999999999900e+03,-4.827627365744192502e+02
1.606250000000000000e+03,-6.077422136240857071e+02
1.604640000000000100e+03,-6.865184356891477364e+02
1.603019999999999982e+03,-6.404856346297601704e+02
1.601410000000000082e+03,-6.851153265083776205e+02
1.599789999999999964e+03,-6.830359547023472260e+02
1.598180000000000064e+03,-5.078391163944907021e+02
1.596559999999999945e+03,-4.856531738418270834e+02
1.594940000000000055e+03,-3.675839357444056077e+02
1.593329999999999927e+03,-5.748572920481965411e+02
1.591710000000000036e+03,-4.975614832041610498e+02
1.590089999999999918e+03,-6.108223788153700298e+02
1.588480000000000018e+03,-4.805859297307906672e+02
1.586859999999999900e+03,-5.173802545953658409e+02
1.585240000000000009e+03,-4.759712839151834487e+02
1.583619999999999891e+03,-3.903790176902548410e+02
1.582000000000000000e+03,-3.560834559205759433e+02
1.580380000000000109e+03,-2.890845986061467556e+02
1.578759999999999991e+03,-4.524024457469640765e+02
1.577150000000000091e+03,-2.834030904665269190e+02
1.575519999999999982e+03,-1.739082533943510498e+02
1.573900000000000091e+03,-1.979362139009099337e+02
1.572279999999999973e+03,-2.966008788627077593e+02
1.570660000000000082e+03,-3.239622482797713019e+02
1.569039999999999964e+03,-2.625003221520819352e+02
1.567420000000000073e+03,-1.181151004796411144e+02
1.565799999999999955e+03,-1.698265832624456380e+02
1.564170000000000073e+03,-1.654685145084949909e+02
1.562549999999999955e+03,-2.028933858589298325e+02
1.560930000000000064e+03,-1.562349616646170034e+02
1.559299999999999955e+03,-7.270692477935517672e+01
1.557680000000000064e+03,2.765581108473270433e+02
1.556059999999999945e+03,6.469864420187732321e+02
1.554430000000000064e+03,4.838244470353311044e+02
1.552809999999999945e+03,2.143938963914115448e+01
1.551180000000000064e+03,1.756404689938062802e+01
1.549549999999999955e+03,-9.047959484320017509e+00
1.547930000000000064e+03,-1.542630895605179830e+02
1.546299999999999955e+03,7.495155629947112175e+01
1.544680000000000064e+03,1.960030376556387637e+02
1.543049999999999955e+03,-5.981566424068296328e+01
1.541420000000000073e+03,-1.035310297809555777e+02
1.539789999999999964e+03,-1.453830589651624905e+02
1.538170000000000073e+03,-7.531833440138143487e+01
1.536539999999999964e+03,9.096288658089179080e+00
1.534910000000000082e+03,1.944542480736272410e+02
1.533279999999999973e+03,5.967554384523100452e+01
1.531650000000000091e+03,1.206801759728987236e+02
1.530019999999999982e+03,7.650814445660944330e+01
1.528390000000000100e+03,2.108394492963998346e+02
1.526759999999999991e+03,5.355409049224545015e+01
1.525130000000000109e+03,2.436720680441503646e+02
1.523500000000000000e+03,1.238133819521244732e+02
1.521859999999999900e+03,1.648648195086570922e+02
1.520230000000000018e+03,2.632528265971850487e+02
1.518599999999999909e+03,2.471241700417886022e+02
1.516970000000000027e+03,2.597588498424520367e+02
1.515329999999999927e+03,3.078037352910105255e+02
1.513700000000000045e+03,2.310651082722397405e+02
1.512069999999999936e+03,4.182098176095314557e+02
1.510430000000000064e+03,3.442047941256168997e+02
1.508799999999999955e+03,2.348161966434709029e+02
1.507160000000000082e+03,3.437779074025893351e+02
1.505529999999999973e+03,2.971560031010230887e+02
1.503890000000000100e+03,2.920844481031381292e+02
1.502259999999999991e+03,3.784692369821350439e+02
1.500619999999999891e+03,1.243644162272976246e+02
1.498980000000000018e+03,-7.341702710902609397e+01
1.497349999999999909e+03,6.987781177504075458e+01
1.495710000000000036e+03,-7.063689731826889329e+01
1.494069999999999936e+03,8.443177100696630077e+01
1.492430000000000064e+03,-5.937618324930372182e+01
1.490789999999999964e+03,-4.992076008705043932e+01
1.489160000000000082e+03,4.599084245110134361e+01
1.487519999999999982e+03,-3.998700014361384092e+01
1.485880000000000109e+03,-2.014146531982260058e+01
1.484240000000000009e+03,-4.505255307749030180e+01
1.482599999999999909e+03,-4.376026341663964558e+01
1.480960000000000036e+03,1.701540366271365201e+01
1.479319999999999936e+03,1.554448160597530659e+00
1.477670000000000073e+03,-1.162757877222538809e+02
1.476029999999999973e+03,-1.489899677933135536e+02
1.474390000000000100e+03,-2.039207704458603985e+02
1.472750000000000000e+03,-1.872881956798883039e+02
1.471109999999999900e+03,-1.590522434953745687e+02
1.469460000000000036e+03,-1.585854685959711787e+02
1.467819999999999936e+03,-2.918827409804289346e+02
1.466180000000000064e+03,-2.088566359463511617e+02
1.464529999999999973e+03,-3.032196462897409219e+02
1.462890000000000100e+03,-4.099067658246276551e+02
1.461240000000000009e+03,-5.315029594233637908e+02
1.459599999999999909e+03,-4.019233035271754488e+02
1.457950000000000045e+03,-3.875926803812544676e+02
1.456309999999999945e+03,-3.227862490540210274e+02
1.454660000000000082e+03,-2.878088091634417651e+02
1.453009999999999991e+03,-2.367679505407286342e+02
1.451369999999999891e+03,-2.718513457699082210e+02
1.449720000000000027e+03,-2.550836704025423387e+02
1.448069999999999936e+03,-1.863925763030565577e+02
1.446420000000000073e+03,-2.688380634714412736e+02
1.444769999999999982e+03,-3.278601319077060907e+02
1.443119999999999891e+03,-2.379387816118396586e+02
1.441480000000000018e+03,-2.825618093598241103e+02
1.439829999999999927e+03,-2.413364231931336690e+01
1.438180000000000064e+03,-9.252205654666613555e+01
1.436529999999999973e+03,-1.105070520419030800e+02
1.434880000000000109e+03,1.832313711949755088e+02
1.433220000000000027e+03,7.362111353790533030e+01
1.431569999999999936e+03,1.446639495863200864e+01
1.429920000000000073e+03,3.647509511147654848e+01
1.428269999999999982e+03,1.302272139964406961e+02
1.426619999999999891e+03,2.042827516135366750e+02
1.424960000000000036e+03,3.145297120601826464e+02
1.423309999999999945e+03,3.912921078611179837e+02
1.421660000000000082e+03,5.402579223941720556e+02
1.420000000000000000e+03,5.328552220411147573e+02
1.418349999999999909e+03,6.264478947580064414e+02
1.416700000000000045e+03,5.704439862070139498e+02
1.415039999999999964e+03,5.086716250542594935e+02
1.413380000000000109e+03,4.937627241983718704e+02
1.411730000000000018e+03,4.967691132829349954e+02
1.410069999999999936e+03,4.969871121756368666e+02
1.408420000000000073e+03,2.987003594440320740e+02
1.406759999999999991e+03,1.810252580853193649e+02
1.405099999999999909e+03,1.536336170234790188e+02
1.403450000000000045e+03,2.936971619274263503e+02
1.401789999999999964e+03,1.999924206141731702e+02
1.400130000000000109e+03,2.980911395977891516e+02
1.398470000000000027e+03,2.900333188782897196e+02
1.396809999999999945e+03,1.972789584556594491e+02
1.395150000000000091e+03,3.025880583299003774e+02
1.393490000000000009e+03,3.093806185010253103e+02
1.391829999999999927e+03,3.110366389690098003e+02
1.390170000000000073e+03,2.937361197338759666e+02
1.388509999999999991e+03,4.119590607956270105e+02
1.386849999999999909e+03,2.742854621542428504e+02
1.385190000000000055e+03,4.108353238097261055e+02
1.383529999999999973e+03,3.496486457620922010e+02
1.381859999999999900e+03,2.773539733295183396e+02
1.380200000000000045e+03,3.630342367207922507e+02
1.378539999999999964e+03,2.776579604089311033e+02
1.376880000000000109e+03,3.588051443939584715e+02
1.375210000000000036e+03,1.733044175002651173e+02
1.373549999999999955e+03,1.436385429242000100e+02
1.371880000000000109e+03,1.346447992853209144e+02
1.370220000000000027e+03,5.818586614816740621e+01
1.368549999999999955e+03,6.905910576408496127e+01
1.366890000000000100e+03,2.103071140658321383e+02
1.365220000000000027e+03,1.191673369365707913e+02
1.363559999999999945e+03,1.298422866772307316e+02
1.361890000000000100e+03,1.830894928027701098e+02
1.360220000000000027e+03,1.265202010410721414e+02
1.358549999999999955e+03,1.272944113921621465e+02
1.356890000000000100e+03,1.767232648558019719e+02
1.355220000000000027e+03,2.044844584616912471e+02
1.353549999999999955e+03,2.118691541803491418e+02
1.351880000000000109e+03,1.257735201178002171e+01
1.350210000000000036e+03,1.372905195597923012e+01
1.348539999999999964e+03,-5.037574598703940865e+01
1.346869999999999891e+03,8.110295818270242307e+01
1.345200000000000045e+03,1.080251644652198593e+02
1.343529999999999973e+03,1.810872860507515725e+00
1.341859999999999900e+03,1.280083368561463431e+00
1.340190000000000055e+03,1.753279598938752315e+01
1.338519999999999982e+03,-3.651098927701241337e+01
1.336849999999999909e+03,-1.635127243063834612e+01
1.335170000000000073e+03,-3.091892185173128382e+01
1.333500000000000000e+03,-1.025121798090840457e+02
1.331829999999999927e+03,-1.184219356536632404e+02
1.330150000000000091e+03,-2.222589947279302578e+02
1.328480000000000018e+03,-1.957217253762391920e+02
1.326799999999999955e+03,-3.463117171871672326e+02
1.325130000000000109e+03,-3.349674226392016863e+02
1.323450000000000045e+03,-1.386103471868227643e+02
1.321779999999999973e+03,-1.478190274425724056e+02
1.320099999999999909e+03,-1.690548847268692043e+02
1.318430000000000064e+03,-7.385653978634582018e+01
1.316750000000000000e+03,-1.406653298073215410e+02
1.315069999999999936e+03,-1.187057564848510083e+01
1.313400000000000091e+03,1.679783175718221173e+02
1.311720000000000027e+03,1.077201389939837100e+02
1.310039999999999964e+03,4.488550459595717257e+01
1.308359999999999900e+03,5.505441437773697544e+01
1.306680000000000064e+03,3.692686833933476009e+01
1.305000000000000000e+03,-4.665713351924568997e+01
1.303319999999999936e+03,-1.287175911980230012e+02
1.301640000000000100e+03,-1.023545046969811665e+02
1.299960000000000036e+03,-7.750787401611523819e+01
1.298279999999999973e+03,-2.582176991554479173e+02
1.296599999999999909e+03,-3.610398011495271930e+01
1.294920000000000073e+03,-1.667467168946532183e+02
1.293240000000000009e+03,-4.696590949453093344e+01
1.291559999999999945e+03,-5.298155791459794273e+01
1.289869999999999891e+03,-8.666396168819483137e+01
1.288190000000000055e+03,-1.187725006523287448e+02
1.286509999999999991e+03,-1.582574954366464226e+02
1.284819999999999936e+03,-1.345291821599894320e+02
1.283140000000000100e+03,-1.852270674883766333e+02
1.281450000000000045e+03,-1.991516024375923735e+02
1.279769999999999982e+03,-1.919623783100287255e+02
1.278079999999999927e+03,-9.041976148512185318e+01
1.276400000000000091e+03,-2.831234279016280198e+02
1.274710000000000036e+03,-1.172336593025866023e+02
1.273029999999999973e+03,8.156978373684614780e+01
1.271339999999999918e+03,1.539667041100074130e+02
1.269650000000000091e+03,1.558272109811732662e+02
1.267960000000000036e+03,1.449113043503566587e+02
1.266279999999999973e+03,1.676089873979799449e+02
1.264589999999999918e+03,8.332023254128216649e+01
1.262900000000000091e+03,2.350950641825838829e+02
1.261210000000000036e+03,1.798734823218910606e+02
1.259519999999999982e+03,2.229354869592134492e+02
1.257829999999999927e+03,2.148210780945337319e+02
1.256140000000000100e+03,2.771502557278508903e+02
1.254450000000000045e+03,2.404030198591863154e+02
1.252759999999999991e+03,2.222993704885193438e+02
1.251069999999999936e+03,2.647993076158672920e+02
1.249380000000000109e+03,4.134228312412087689e+02
1.247680000000000064e+03,4.721201716248106095e+02
1.245990000000000009e+03,6.469908894680447702e+02
1.244299999999999955e+03,6.191451938092905039e+02
1.242609999999999900e+03,7.756230846485341317e+02
1.240910000000000082e+03,9.706748772591417946e+02
1.239220000000000027e+03,8.578199623162836360e+02
1.237519999999999982e+03,1.095278991714123549e+03
1.235829999999999927e+03,1.106111270989149489e+03
1.234130000000000109e+03,1.081777537174213649e+03
1.232440000000000055e+03,1.102697010667128779e+03
1.230740000000000009e+03,1.044830513639422861e+03
1.229049999999999955e+03,1.120877181350228057e+03
1.227349999999999909e+03,1.258457921109755262e+03
1.225650000000000091e+03,1.235082289936613961e+03
1.223960000000000036e+03,1.387419759585201973e+03
1.222259999999999991e+03,1.391511365199294232e+03
1.220559999999999945e+03,1.568126599880721187e+03
1.218859999999999900e+03,1.724665463629498845e+03
1.217160000000000082e+03,1.785827956445598829e+03
1.215460000000000036e+03,1.820474078329058102e+03
1.213759999999999991e+03,1.958623829279858910e+03
1.212059999999999945e+03,1.920377209297996160e+03
1.210359999999999900e+03,2.091734218383477128e+03
1.208660000000000082e+03,2.182194856536298175e+03
1.206960000000000036e+03,2.222119123756448971e+03
1.205259999999999991e+03,2.307847020043955126e+03
1.203559999999999945e+03,2.341258545398806746e+03
1.201859999999999900e+03,2.407013699820992770e+03
1.200150000000000091e+03,2.595443310420494527e+03
1.198450000000000045e+03,2.622665744324825937e+03
1.196750000000000000e+03,2.558631807296493207e+03
1.195039999999999964e+03,2.733752390613415628e+03
1.193339999999999918e+03,2.784445733067223046e+03
1.191630000000000109e+03,2.994973638686769846e+03
1.189930000000000064e+03,3.202214260622709844e+03
1.188220000000000027e+03,3.326069488544879277e+03
1.186519999999999982e+03,3.367897389962956368e+03
1.184809999999999945e+03,3.443339940187754110e+03
1.183099999999999909e+03,3.586766162300369615e+03
1.181400000000000091e+03,3.635264993615379353e+03
1.179690000000000055e+03,3.810818538030609488e+03
1.177980000000000018e+03,3.895255754333673394e+03
1.176269999999999982e+03,4.027656642524565541e+03
1.174569999999999936e+03,4.122950054151304357e+03
1.172859999999999900e+03,4.043478264644811134e+03
1.171150000000000091e+03,4.396090147026137856e+03
1.169440000000000055e+03,4.322745701295298204e+03
1.167730000000000018e+03,4.414964927452278062e+03
1.166019999999999982e+03,4.522627825497089361e+03
1.164309999999999945e+03,4.642294395429722499e+03
1.162599999999999909e+03,4.883444637250177038e+03
1.160880000000000109e+03,4.970509871194633888e+03
1.159170000000000073e+03,4.967347478263771336e+03
1.157460000000000036e+03,5.194568757220728003e+03
1.155750000000000000e+03,5.387293708065510145e+03
1.154029999999999973e+03,5.393413737051996577e+03
1.152319999999999936e+03,5.496146053145457699e+03
1.150609999999999900e+03,5.789662041126746772e+03
1.148890000000000100e+03,5.750213171794373920e+03
1.147180000000000064e+03,5.796276525024339207e+03
1.145460000000000036e+03,5.952815064012291259e+03
1.143750000000000000e+03,6.093305782490933780e+03
1.142029999999999973e+03,6.266891729799193854e+03
1.140319999999999936e+03,6.401789813526505895e+03
1.138599999999999909e+03,6.536243169155066425e+03
1.136880000000000109e+03,6.823540239743080747e+03
1.135160000000000082e+03,7.068241025290553807e+03
1.133450000000000045e+03,7.176373860988256638e+03
1.131730000000000018e+03,7.320502054856031464e+03
1.130009999999999991e+03,7.541713963683272596e+03
1.128289999999999964e+03,7.697969587469968246e+03
1.126569999999999936e+03,7.856748926216107066e+03
1.124849999999999909e+03,8.019891979921696475e+03
1.123130000000000109e+03,8.099818748586742004e+03
1.121410000000000082e+03,8.191949232211252820e+03
1.119690000000000055e+03,8.282303430795225722e+03
1.117970000000000027e+03,8.282581344338643248e+03
1.116250000000000000e+03,8.700202972841503652e+03
1.114529999999999973e+03,8.930388316303840838e+03
1.112799999999999955e+03,9.012949298718060163e+03
1.111079999999999927e+03,9.270562093697892124e+03
1.109359999999999900e+03,9.502258603637179476e+03
1.107630000000000109e+03,9.761650817449746683e+03
1.105910000000000082e+03,1.006537477890654191e+04
1.104190000000000055e+03,1.017386245532280009e+04
1.102460000000000036e+03,1.039730590053370543e+04
1.100740000000000009e+03,1.059874102846746973e+04
1.099009999999999991e+03,1.072701196851867280e+04
1.097279999999999973e+03,1.097950666685209217e+04
1.095559999999999945e+03,1.096521298286141973e+04
1.093829999999999927e+03,1.122917517603513988e+04
1.092099999999999909e+03,1.138274112749107371e+04
1.090380000000000109e+03,1.147869863157597138e+04
1.088650000000000091e+03,1.198781207787220046e+04
1.086920000000000073e+03,1.230632928245065705e+04
1.085190000000000055e+03,1.243153024531134724e+04
1.083460000000000036e+03,1.280305496645427047e+04
1.081730000000000018e+03,1.310330344587943546e+04
1.080000000000000000e+03,1.350779568358680990e+04
1.078269999999999982e+03,1.372691167957642756e+04
1.076539999999999964e+03,1.384535143384826733e+04
1.074809999999999945e+03,1.415989494640233534e+04
1.073079999999999927e+03,1.452400221723865252e+04
1.071349999999999909e+03,1.472541324635718411e+04
1.069609999999999900e+03,1.492002050010132371e+04
1.067880000000000109e+03,1.530655906750849681e+04
1.066150000000000091e+03,1.565574139319788810e+04
1.064420000000000073e+03,1.591504747716952625e+04
1.062680000000000064e+03,1.621774987278904155e+04
1.060950000000000045e+03,1.657488349504931102e+04
1.059210000000000036e+03,1.685135347253136933e+04
1.057480000000000018e+03,1.704569463308027844e+04
1.055740000000000009e+03,1.723181219242489897e+04
1.054009999999999991e+03,1.747756089126244115e+04
1.052269999999999982e+03,1.763990603246962928e+04
1.050529999999999973e+03,1.797327497553296416e+04
1.048799999999999955e+03,1.813955499266555489e+04
1.047059999999999945e+03,1.857485151759144355e+04
1.045319999999999936e+03,1.845607184437349861e+04
1.043579999999999927e+03,1.856519597301170506e+04
1.041849999999999909e+03,1.874481108844572736e+04
1.040109999999999900e+03,1.898380279894649357e+04
1.038369999999999891e+03,1.893067831130341074e+04
1.036630000000000109e+03,1.907355762551647786e+04
1.034890000000000100e+03,1.916212074158570249e+04
1.033150000000000091e+03,1.899958765951108217e+04
1.031410000000000082e+03,1.911139837929261557e+04
1.029660000000000082e+03,1.922972586893885818e+04
1.027920000000000073e+03,1.917530421428244154e+04
1.026180000000000064e+03,1.903766636148218095e+04
1.024440000000000055e+03,1.904269231053807380e+04
1.022690000000000055e+03,1.883199511698324568e+04
1.020950000000000045e+03,1.897620869160119037e+04
1.019210000000000036e+03,1.903926606807529242e+04
1.017460000000000036e+03,1.906010036761350057e+04
1.015720000000000027e+03,1.894370536964965504e+04
1.013970000000000027e+03,1.871874733857497267e+04
1.012230000000000018e+03,1.867585996617318233e+04
1.010480000000000018e+03,1.844506960448563041e+04
1.008740000000000009e+03,1.849450985764589495e+04
1.006990000000000009e+03,1.823156716534547377e+04
1.005240000000000009e+03,1.804432831872627139e+04
1.003500000000000000e+03,1.785436002115448719e+04
1.001750000000000000e+03,1.766902884392240958e+04
1.000000000000000000e+03,1.747036151237154627e+04
9.982519999999999527e+02,1.739677135400503175e+04
9.965030000000000427e+02,1.711674837097745694e+04
9.947540000000000191e+02,1.699328922923731443e+04
9.930040000000000191e+02,1.679931727162121751e+04
9.912540000000000191e+02,1.659488915968634683e+04
9.895030000000000427e+02,1.622580824066565037e+04
9.877519999999999527e+02,1.614419117172250844e+04
9.860009999999999764e+02,1.592211795285690096e+04
9.842490000000000236e+02,1.576389193789943602e+04
9.824969999999999573e+02,1.542224977741832481e+04
9.807440000000000282e+02,1.512217482964551891e+04
9.789919999999999618e+02,1.488896038031721400e+04
9.772380000000000564e+02,1.472181651073306421e+04
9.754840000000000373e+02,1.453565650443049162e+04
9.737300000000000182e+02,1.419198036140948534e+04
9.719759999999999991e+02,1.393940808167005525e+04
9.702210000000000036e+02,1.390292303665819782e+04
9.684650000000000318e+02,1.356996523298534157e+04
9.667100000000000364e+02,1.309994792555315871e+04
9.649539999999999509e+02,1.295755786386888212e+04
9.631970000000000027e+02,1.288389505454766186e+04
9.614400000000000546e+02,1.245825612173465197e+04
9.596829999999999927e+02,1.237654106542985755e+04
9.579249999999999545e+02,1.242627327251974202e+04
9.561670000000000300e+02,1.226276936053172540e+04
9.544080000000000155e+02,1.187105272076871915e+04
9.526490000000000009e+02,1.178453996634422583e+04
9.508899999999999864e+02,1.155231109725825809e+04
9.491299999999999955e+02,1.134238951144144812e+04
9.473700000000000045e+02,1.112773181538208883e+04
9.456090000000000373e+02,1.079624141143224915e+04
9.438479999999999563e+02,1.070821490166129661e+04
9.420869999999999891e+02,1.050789228606920005e+04
9.403250000000000455e+02,1.038371697364336796e+04
9.385629999999999882e+02,1.016486555982035861e+04
9.367999999999999545e+02,9.965741458014003001e+03
9.350370000000000346e+02,9.736381259236921323e+03
9.332740000000000009e+02,9.548504963489129295e+03
9.315099999999999909e+02,9.546755990827266942e+03
9.297450000000000045e+02,9.195314347896688560e+03
9.279809999999999945e+02,9.020573192366442527e+03
9.262160000000000082e+02,8.857559370998944360e+03
9.244500000000000455e+02,8.633212890443315700e+03
9.226839999999999691e+02,8.412350326211409993e+03
9.209180000000000064e+02,8.253351678303224617e+03
9.191509999999999536e+02,8.098420382295018499e+03
9.173840000000000146e+02,7.764493007047032734e+03
9.156169999999999618e+02,7.660429552559271542e+03
9.138490000000000464e+02,7.441393461065890733e+03
9.120810000000000173e+02,7.230881294771748799e+03
9.103120000000000118e+02,7.144396500352529984e+03
9.085430000000000064e+02,6.784075635574070475e+03
9.067730000000000246e+02,6.494882151556106692e+03
9.050030000000000427e+02,6.352752601622934890e+03
9.032329999999999472e+02,6.046906985774567147e+03
9.014619999999999891e+02,5.908108761799921922e+03
8.996910000000000309e+02,5.813974476356623200e+03
8.979189999999999827e+02,5.467087591682658967e+03
8.961470000000000482e+02,5.259764649989108875e+03
8.943750000000000000e+02,5.074565651275963319e+03
8.926019999999999754e+02,4.795014064457940549e+03
8.908289999999999509e+02,4.578746425071905833e+03
8.890549999999999500e+02,4.400446206486656592e+03
8.872809999999999491e+02,4.176849939787458425e+03
8.855069999999999482e+02,4.058177624974334321e+03
8.837319999999999709e+02,3.837912742100343166e+03
8.819569999999999936e+02,3.759171815568999591e+03
8.801810000000000400e+02,3.618838329892492766e+03
8.784049999999999727e+02,3.493228805017759441e+03
8.766280000000000427e+02,3.340426729918577621e+03
8.748519999999999754e+02,3.159845128877557727e+03
8.730739999999999554e+02,3.127394475510373013e+03
8.712970000000000255e+02,2.871064296201348043e+03
8.695180000000000291e+02,2.799645077958542970e+03
8.677400000000000091e+02,2.837366333773905353e+03
8.659610000000000127e+02,2.805375061685470428e+03
8.641810000000000400e+02,2.665831268395075313e+03
8.624020000000000437e+02,2.550527946928901656e+03
8.606209999999999809e+02,2.494055617804220674e+03
8.588410000000000082e+02,2.606343760503754311e+03
8.570599999999999454e+02,2.520719395412568701e+03
8.552780000000000200e+02,2.600502529240027798e+03
8.534969999999999573e+02,2.620166132655242109e+03
8.517140000000000555e+02,2.620540759722392977e+03
8.499320000000000164e+02,2.785855856377300370e+03
8.481490000000000009e+02,2.771058465377151151e+03
8.463650000000000091e+02,2.857888593438870885e+03
8.445810000000000173e+02,3.099662718065603258e+03
8.427970000000000255e+02,3.109000839257383632e+03
8.410119999999999436e+02,3.281446490712154628e+03
8.392269999999999754e+02,3.397576143213671457e+03
8.374410000000000309e+02,3.565733334944114176e+03
8.356549999999999727e+02,3.797994532205520954e+03
8.338690000000000282e+02,3.999619734997890191e+03
8.320819999999999936e+02,4.124532488232875039e+03
8.302949999999999591e+02,4.365509251485560526e+03
8.285069999999999482e+02,4.667973574156840186e+03
8.267190000000000509e+02,4.781801911335063778e+03
8.249310000000000400e+02,4.994634263020227081e+03
8.231420000000000528e+02,5.121834185350235202e+03
8.213529999999999518e+02,5.471998126678943663e+03
8.195629999999999882e+02,5.514469647638521565e+03
8.177730000000000246e+02,5.708845192091052013e+03
8.159819999999999709e+02,5.840648325165504502e+03
8.141910000000000309e+02,6.004235486229696107e+03
8.123999999999999773e+02,6.225266675283633958e+03
8.106079999999999472e+02,6.418085464204566961e+03
8.088160000000000309e+02,6.558888285614539200e+03
8.070230000000000246e+02,6.799318715892597538e+03
8.052300000000000182e+02,6.895433183161487250e+03
8.034370000000000118e+02,7.060951687421220413e+03
8.016430000000000291e+02,7.061437811806681566e+03
7.998479999999999563e+02,7.229411563076231687e+03
7.980539999999999736e+02,7.203465772704774281e+03
7.962590000000000146e+02,7.302307613724224211e+03
7.944629999999999654e+02,7.501977092896715476e+03
7.926670000000000300e+02,7.482190622580506897e+03
7.908709999999999809e+02,7.592728202775604586e+03
7.890739999999999554e+02,7.464733432400218589e+03
7.872770000000000437e+02,7.483722717047981860e+03
7.854790000000000418e+02,7.513619660151467542e+03
7.836810000000000400e+02,7.501800662792462390e+03
7.818819999999999482e+02,7.577029332920410525e+03
7.800839999999999463e+02,7.525478456894245028e+03
7.782839999999999918e+02,7.443478865339449840e+03
7.764840000000000373e+02,7.609063342358425871e+03
7.746839999999999691e+02,7.474331887951171666e+03
7.728840000000000146e+02,7.426624502117680095e+03
7.710829999999999700e+02,7.530004806368040590e+03
7.692809999999999491e+02,7.460432807486980892e+03
7.674790000000000418e+02,7.341284886225985247e+03
7.656770000000000209e+02,7.406361042585052928e+03
7.638750000000000000e+02,7.292861276564191940e+03
7.620710000000000264e+02,7.309292853815633862e+03
7.602680000000000291e+02,7.448444882651398075e+03
7.584640000000000555e+02,7.449624630990314472e+03
7.566599999999999682e+02,7.551368466005649680e+03
7.548550000000000182e+02,7.520700029585499578e+03
7.530499999999999545e+02,7.474535684373702679e+03
7.512440000000000282e+02,7.463359076792818087e+03
7.494379999999999882e+02,7.539126564954738569e+03
7.476309999999999718e+02,7.469061799818977306e+03
7.458250000000000455e+02,7.527917481734344619e+03
7.440170000000000528e+02,7.560024570386744017e+03
7.422100000000000364e+02,7.495032106090271554e+03
7.404009999999999536e+02,7.626451062149251811e+03
7.385929999999999609e+02,7.620690465259354824e+03
7.367839999999999918e+02,7.676937637769155117e+03
7.349740000000000464e+02,7.733972586493513518e+03
7.331639999999999873e+02,7.883291649123581010e+03
7.313540000000000418e+02,7.963774825659365888e+03
7.295430000000000064e+02,8.069945789774094010e+03
7.277319999999999709e+02,8.105720872341546055e+03
7.259210000000000491e+02,8.138200073361706018e+03
7.241090000000000373e+02,8.264227073331476277e+03
7.222960000000000491e+02,8.179461879076996411e+03
7.204840000000000373e+02,8.494677127326638583e+03
7.186699999999999591e+02,8.558583873230872996e+03
7.168569999999999709e+02,8.655571061639213440e+03
7.150430000000000064e+02,8.680606069483179454e+03
7.132279999999999518e+02,8.823888903596460295e+03
7.114130000000000109e+02,8.817275874375605781e+03
7.095979999999999563e+02,8.984726981820622314e+03
7.077820000000000391e+02,9.137005926930727583e+03
7.059660000000000082e+02,9.298349013266270049e+03
7.041490000000000009e+02,9.294519946388540120e+03
7.023319999999999936e+02,9.474775025298324181e+03
7.005140000000000100e+02,9.592577960121507203e+03
6.986970000000000027e+02,9.805981332887979079e+03
6.968780000000000427e+02,9.966056280824162968e+03
6.950589999999999691e+02,9.946535383679554798e+03
6.932400000000000091e+02,1.015407864145412896e+04
6.914210000000000491e+02,1.030000605414791789e+04
6.896000000000000227e+02,1.031706506942154374e+04
6.877799999999999727e+02,1.044810452263846673e+04
6.859589999999999463e+02,1.057971186374726676e+04
6.841380000000000337e+02,1.060610336891700354e+04
6.823160000000000309e+02,1.073134277112537893e+04
6.804940000000000282e+02,1.084144634196932748e+04
6.786710000000000491e+02,1.107059781900368762e+04
6.768479999999999563e+02,1.124073346925077021e+04
6.750240000000000009e+02,1.132331703484506215e+04
6.732010000000000218e+02,1.145548103380676002e+04
6.713759999999999764e+02,1.174363669941075932e+04
6.695510000000000446e+02,1.180779654738930003e+04
6.677259999999999991e+02,1.187686057774237815e+04
6.659009999999999536e+02,1.193604879047000031e+04
6.640739999999999554e+02,1.201940869734045918e+04
6.622480000000000473e+02,1.215746903757831933e+04
6.604210000000000491e+02,1.237485732524738160e+04
6.585940000000000509e+02,1.249942980446285037e+04
6.567659999999999627e+02,1.260485024028639782e+04
6.549379999999999882e+02,1.271897487224605902e+04
6.531090000000000373e+02,1.278302746999572082e+04
6.512799999999999727e+02,1.301278426847371156e+04
6.494500000000000455e+02,1.317822904192864371e+04
6.476200000000000045e+02,1.327915802070662539e+04
6.457899999999999636e+02,1.356521120480766513e+04
6.439589999999999463e+02,1.374499237537559929e+04
6.421280000000000427e+02,1.387499775586381656e+04
6.402960000000000491e+02,1.394873113201591514e+04
6.384640000000000555e+02,1.411934872268805702e+04
6.366319999999999482e+02,1.429211052788023699e+04
6.347989999999999782e+02,1.443072034023881497e+04
6.329650000000000318e+02,1.440269816666904080e+04
6.311309999999999718e+02,1.475670021682635524e+04
6.292970000000000255e+02,1.492708649071072432e+04
6.274619999999999891e+02,1.545688079018183998e+04
6.256269999999999527e+02,1.549631931798730693e+04
6.237920000000000300e+02,1.585908207412712363e+04
6.219560000000000173e+02,1.602947286737501963e+04
6.201190000000000282e+02,1.646281170464757815e+04
6.182820000000000391e+02,1.659435477947658728e+04
6.164450000000000500e+02,1.705328209186204913e+04
6.146069999999999709e+02,1.748047745980607579e+04
6.127690000000000055e+02,1.773337706992137100e+04
6.109299999999999500e+02,1.848736474482736958e+04
6.090910000000000082e+02,1.871065666652197251e+04
6.072519999999999527e+02,1.930567283500518170e+04
6.054120000000000346e+02,1.973085707982554595e+04
6.035720000000000027e+02,2.017464557605436130e+04
6.017309999999999945e+02,2.046396215786253015e+04
5.998899999999999864e+02,2.091394299570149451e+04
5.980480000000000018e+02,2.126437192836703980e+04
5.962060000000000173e+02,2.160436512168823538e+04
5.943630000000000564e+02,2.210130641908824327e+04
5.925199999999999818e+02,2.241497198177129758e+04
5.906770000000000209e+02,2.270758180973736307e+04
5.888329999999999700e+02,2.296621975335383468e+04
5.869890000000000327e+02,2.307782196688320983e+04
5.851440000000000055e+02,2.350843230532527377e+04
5.832989999999999782e+02,2.369956691831263743e+04
5.814529999999999745e+02,2.396732966547999240e+04
5.796069999999999709e+02,2.430377669182755926e+04
5.777609999999999673e+02,2.442836799735536624e+04
5.759139999999999873e+02,2.472618744865355256e+04
5.740660000000000309e+02,2.483823505268015288e+04
5.722179999999999609e+02,2.502654694516434029e+04
5.703700000000000045e+02,2.526108312610609573e+04
5.685209999999999582e+02,2.545578747137922619e+04
5.666720000000000255e+02,2.563523610975238262e+04
5.648229999999999791e+02,2.569218904122554886e+04
5.629729999999999563e+02,2.583727014863934892e+04
5.611219999999999573e+02,2.606361943896310186e+04
5.592709999999999582e+02,2.631425303167928359e+04
5.574199999999999591e+02,2.648133092678790854e+04
5.555679999999999836e+02,2.689271701642828702e+04
5.537160000000000082e+02,2.721104741311107864e+04
5.518630000000000564e+02,2.733254601362808899e+04
5.500099999999999909e+02,2.780262892584001384e+04
5.481570000000000391e+02,2.817321614974682598e+04
5.463029999999999973e+02,2.856553158912224171e+04
5.444479999999999791e+02,2.896901525095061515e+04
5.425940000000000509e+02,2.958875932535396350e+04
5.407380000000000564e+02,3.004173553762961456e+04
5.388819999999999482e+02,3.065241607557272073e+04
5.370259999999999536e+02,3.135330093918326384e+04
5.351699999999999591e+02,3.201511012846125232e+04
5.333129999999999882e+02,3.264000756349233052e+04
5.314550000000000409e+02,3.365419325127216871e+04
5.295969999999999800e+02,3.428010327404705458e+04
5.277390000000000327e+02,3.520357763181693736e+04
5.258799999999999955e+02,3.573714025400135870e+04
5.240199999999999818e+02,3.690303114760354219e+04
5.221609999999999445e+02,3.764488245144754183e+04
5.203010000000000446e+02,3.858290203137937351e+04
5.184400000000000546e+02,3.914406989440599136e+04
5.165789999999999509e+02,4.005772210643786821e+04
5.147169999999999845e+02,4.080282261091220425e+04
5.128550000000000182e+02,4.153282746906688408e+04
5.109929999999999950e+02,4.234547668090186926e+04
5.091299999999999955e+02,4.268431419687023299e+04
5.072669999999999959e+02,4.330875607119651977e+04
5.054030000000000200e+02,4.383372625901387073e+04
5.035389999999999873e+02,4.427154080986927147e+04
5.016739999999999782e+02,4.468502368357848900e+04
4.998090000000000259e+02,4.506381092500837985e+04
4.979429999999999836e+02,4.553270649865986343e+04
4.960769999999999982e+02,4.590822644471714739e+04
4.942110000000000127e+02,4.591171076318024279e+04
4.923439999999999941e+02,4.574142342558090604e+04
4.904769999999999754e+02,4.611372046507503546e+04
4.886089999999999804e+02,4.598636585788453522e+04
4.867409999999999854e+02,4.596133563247766870e+04
4.848720000000000141e+02,4.599093376976899162e+04
4.830029999999999859e+02,4.585547629353664524e+04
4.811329999999999814e+02,4.581718718939034443e+04
4.792629999999999768e+02,4.562498247641552007e+04
4.773929999999999723e+02,4.576862215461219603e+04
4.755219999999999914e+02,4.512385021663604130e+04
4.736499999999999773e+02,4.521550666953546170e+04
4.717789999999999964e+02,4.503920352564713539e+04
4.699060000000000059e+02,4.507187277704247390e+04
4.680339999999999918e+02,4.489042243165007676e+04
4.661600000000000250e+02,4.492320449564949377e+04
4.642869999999999777e+02,4.459620696286116436e+04
4.624130000000000109e+02,4.419713784446200589e+04
4.605380000000000109e+02,4.405915714751178166e+04
4.586630000000000109e+02,4.368796086524662678e+04
4.567880000000000109e+02,4.379012899766656483e+04
4.549119999999999777e+02,4.332352556330788502e+04
4.530350000000000250e+02,4.334933056923788536e+04
4.511589999999999918e+02,4.300539597602563299e+04
4.492810000000000059e+02,4.261613385342218680e+04
4.474039999999999964e+02,4.257799213167647395e+04
4.455249999999999773e+02,4.226072289468540112e+04
4.436469999999999914e+02,4.182855405855206482e+04
4.417679999999999723e+02,4.166597368628377444e+04
4.398879999999999768e+02,4.117578178495910106e+04
4.380079999999999814e+02,4.077967432189588726e+04
4.361279999999999859e+02,4.059817129709414439e+04
4.342470000000000141e+02,4.036197675503990467e+04
4.323659999999999854e+02,4.013282665596991137e+04
4.304839999999999804e+02,3.971520504909558076e+04
4.286019999999999754e+02,3.940536788993082882e+04
4.267189999999999941e+02,3.874519923241487413e+04
4.248360000000000127e+02,3.862753502733634377e+04
4.229519999999999982e+02,3.846695933336477174e+04
4.210679999999999836e+02,3.815784809656097787e+04
4.191829999999999927e+02,3.814454538032735582e+04
4.172980000000000018e+02,3.777870712599436956e+04
4.154130000000000109e+02,3.750245333356199262e+04
4.135269999999999868e+02,3.739312807353507378e+04
4.116410000000000196e+02,3.719296728014414839e+04
4.097540000000000191e+02,3.706345502863192087e+04
4.078670000000000186e+02,3.666934724849356280e+04
4.059789999999999850e+02,3.643596801971217792e+04
4.040910000000000082e+02,3.630147326704506122e+04
4.022019999999999982e+02,3.614464707521819219e+04
4.003129999999999882e+02,3.584260536424849852e+04
3.984230000000000018e+02,3.597999222360739077e+04
3.965330000000000155e+02,3.565724356856884697e+04
3.946429999999999723e+02,3.546195939913288748e+04
3.927520000000000095e+02,3.531462381189218286e+04
3.908600000000000136e+02,3.500299681397049426e+04
3.889689999999999941e+02,3.501185020980537229e+04
3.870760000000000218e+02,3.465557630342993798e+04
3.851829999999999927e+02,3.446408689690838946e+04
3.832900000000000205e+02,3.443672199024072324e+04
3.813960000000000150e+02,3.424492569427972194e+04
3.795020000000000095e+02,3.408359390292806347e+04
3.776080000000000041e+02,3.402528661618576734e+04
3.757119999999999891e+02,3.398607207003227086e+04
3.738170000000000073e+02,3.361717791763535206e+04
3.719209999999999923e+02,3.355885239735658251e+04
3.700240000000000009e+02,3.345421551633857598e+04
3.681270000000000095e+02,3.294768315421137231e+04
3.662300000000000182e+02,3.282353531097497034e+04
3.643319999999999936e+02,3.268185611890995278e+04
3.624340000000000259e+02,3.255526145050123159e+04
3.605350000000000250e+02,3.244459544279743568e+04
3.586360000000000241e+02,3.232843396351794217e+04
3.567359999999999900e+02,3.224950115448190627e+04
3.548360000000000127e+02,3.215013287864072481e+04
3.529350000000000023e+02,3.213527328258656780e+04
3.510339999999999918e+02,3.185771822450029504e+04
3.491320000000000050e+02,3.178569185574964649e+04
3.472300000000000182e+02,3.165459002974241594e+04
3.453279999999999745e+02,3.166677274647863305e+04
3.434250000000000114e+02,3.146358416449248762e+04
3.415210000000000150e+02,3.122794429095295345e+04
3.396170000000000186e+02,3.118126896971549650e+04
3.377130000000000223e+02,3.097579820078009652e+04
3.358079999999999927e+02,3.095917615224589827e+04
3.339030000000000200e+02,3.084655866079685075e+04
3.319970000000000141e+02,3.081196989931767894e+04
3.300910000000000082e+02,3.058828569970926765e+04
3.281840000000000259e+02,3.062571023964441702e+04
3.262769999999999868e+02,3.070139934623844238e+04
3.243690000000000282e+02,3.052099720195476766e+04
3.224610000000000127e+02,3.057105962912057657e+04
3.205520000000000209e+02,3.051191081499244319e+04
3.186429999999999723e+02,3.033076657710693689e+04
3.167339999999999804e+02,3.036730691546402886e+04
3.148240000000000123e+02,3.018267602451315179e+04
3.129130000000000109e+02,3.012121391144964218e+04
3.110020000000000095e+02,3.010865638422255506e+04
3.090910000000000082e+02,2.991100344283187587e+04
3.071789999999999736e+02,2.993971929132709920e+04
3.052669999999999959e+02,2.982061973045939885e+04
3.033539999999999850e+02,2.973466896908143462e+04
3.014399999999999977e+02,2.967620701439985351e+04
2.995269999999999868e+02,2.950176544630463468e+04
2.976120000000000232e+02,2.946461690577455010e+04
2.956979999999999791e+02,2.934312875183081633e+04
2.937819999999999823e+02,2.933795363987683959e+04
2.918670000000000186e+02,2.916205891450920171e+04
2.899510000000000218e+02,2.896443301987895757e+04
2.880339999999999918e+02,2.880261596320406898e+04
2.861170000000000186e+02,2.861070352120723692e+04
2.841990000000000123e+02,2.865671992679471805e+04
2.822810000000000059e+02,2.857034095187601270e+04
2.803629999999999995e+02,2.850718659645112348e+04
2.784440000000000168e+02,2.847720110065301196e+04
2.765240000000000009e+02,2.840144447171092543e+04
2.746039999999999850e+02,2.818979247190166643e+04
2.726840000000000259e+02,2.806966510122521140e+04
2.707629999999999768e+02,2.810398660945984011e+04
2.688419999999999845e+02,2.798973275165054656e+04
2.669200000000000159e+02,2.779388778240136162e+04
2.649970000000000141e+02,2.773187170895285090e+04
2.630749999999999886e+02,2.765897601968092204e+04
2.611510000000000105e+02,2.780977349288630649e+04
2.592269999999999754e+02,2.747501561453265094e+04
2.573029999999999973e+02,2.764110238461996050e+04
2.553789999999999907e+02,2.760643380314823662e+04
2.534530000000000030e+02,2.777821841314617996e+04
2.515279999999999916e+02,2.753348340732069482e+04
2.496009999999999991e+02,2.754336160747236499e+04
2.476750000000000114e+02,2.749320019180061354e+04
2.457479999999999905e+02,2.771456771542936622e+04
2.438199999999999932e+02,2.764588418561801518e+04
2.418919999999999959e+02,2.778806532359595440e+04
2.399629999999999939e+02,2.777359541781799271e+04
2.380339999999999918e+02,2.792431018467268950e+04
2.361049999999999898e+02,2.790888962416003051e+04
2.341750000000000114e+02,2.806495803200303271e+04
2.322439999999999998e+02,2.782633541547236018e+04
2.303129999999999882e+02,2.810593748126859646e+04
2.283820000000000050e+02,2.774630422939173877e+04
2.264499999999999886e+02,2.796791996526532603e+04
2.245180000000000007e+02,2.812942038831670652e+04
2.225850000000000080e+02,2.816696980882283970e+04
2.206510000000000105e+02,2.811404823406569267e+04
2.187179999999999893e+02,2.813584704106155914e+04
2.167829999999999870e+02,2.806699917521278257e+04
2.148480000000000132e+02,2.789043601110956297e+04
2.129130000000000109e+02,2.798319754875189756e+04
2.109770000000000039e+02,2.790394811299326466e+04
2.090409999999999968e+02,2.808660338384114220e+04
2.071040000000000134e+02,2.798418769101244106e+04
2.051670000000000016e+02,2.795307670965369107e+04
2.032290000000000134e+02,2.798783477434778615e+04
2.012909999999999968e+02,2.807651755537780991e+04
1.993520000000000039e+02,2.806872939219511318e+04
1.974130000000000109e+02,2.812806595021680550e+04
1.954730000000000132e+02,2.801465157376524439e+04
1.935329999999999870e+02,2.804126192338907276e+04
1.915929999999999893e+02,2.795323699908826529e+04
1.896510000000000105e+02,2.797918550412805052e+04
1.877100000000000080e+02,2.811275439092085071e+04
1.857680000000000007e+02,2.828623236517177429e+04
1.838249999999999886e+02,2.817007943419672665e+04
1.818820000000000050e+02,2.820069124392506637e+04
1.799379999999999882e+02,2.828537215818699769e+04
1.779939999999999998e+02,2.838209781803335500e+04
1.760500000000000114e+02,2.854026822346416157e+04
1.741049999999999898e+02,2.863336774563425570e+04
1.721589999999999918e+02,2.881487639187084278e+04
1.702129999999999939e+02,2.889766979346146400e+04
1.682659999999999911e+02,2.907059232889320992e+04
1.663189999999999884e+02,2.908425962456756679e+04
1.643720000000000141e+02,2.935751168048452382e+04
1.624240000000000066e+02,2.942071288246716358e+04
1.604749999999999943e+02,2.950778323785396060e+04
1.585260000000000105e+02,2.970179836326804798e+04
1.565769999999999982e+02,2.991297825870941597e+04
1.546270000000000095e+02,3.015452731979205419e+04
1.526759999999999877e+02,3.024454555386203356e+04
1.507249999999999943e+02,3.030226856775400302e+04
1.487740000000000009e+02,3.040943636146795689e+04
1.468220000000000027e+02,3.046739334041891925e+04
1.448700000000000045e+02,3.049841510409297916e+04
1.429170000000000016e+02,3.049932606280881009e+04
1.409629999999999939e+02,3.105516622392373029e+04
1.390089999999999861e+02,3.133671117957155730e+04
1.370550000000000068e+02,3.114100092975227017e+04
1.350999999999999943e+02,3.089865989460059791e+04
1.331440000000000055e+02,3.095690808148138603e+04
1.311879999999999882e+02,3.145484107271491303e+04
1.292319999999999993e+02,3.139181886830117219e+04
1.272750000000000057e+02,3.140068589820096531e+04
1.253179999999999978e+02,3.159093773736716685e+04
1.233599999999999994e+02,3.186921882067678962e+04
1.214009999999999962e+02,3.153314915550600199e+04
1.194419999999999931e+02,3.132362430943650907e+04
1.174830000000000041e+02,3.148450428246834417e+04
1.155229999999999961e+02,3.112821351931966274e+04
1.135630000000000024e+02,3.092466758019349800e+04
1.116020000000000039e+02,3.053845091473177308e+04
1.096400000000000006e+02,3.105412353032195097e+04
1.076779999999999973e+02,3.162636097978462931e+04
1.057159999999999940e+02,3.140442326311979559e+04
1.037530000000000001e+02,3.053439483982561069e+04
1.017900000000000063e+02,3.040561125533266022e+04
9.982569999999999766e+01,3.086278431339943927e+04
9.786119999999999663e+01,3.127166711005803882e+04
9.589629999999999654e+01,3.187318454066148115e+04
9.393080000000000496e+01,3.294106150253720261e+04
9.196490000000000009e+01,3.353811310526750458e+04
8.999840000000000373e+01,3.338208424716894660e+04
8.803149999999999409e+01,3.282447003683824732e+04
8.606399999999999295e+01,3.332313537358154281e+04
8.409610000000000696e+01,3.395191536500948132e+04
8.212760000000000105e+01,3.310313491141832492e+04
8.015860000000000696e+01,3.151637156834478083e+04
7.818909999999999627e+01,3.114570533949768287e+04
7.621909999999999741e+01,3.153547622858675822e+04
7.424869999999999948e+01,3.132826178966786392e+04
7.227760000000000673e+01,2.994640937541715539e+04
7.030610000000000070e+01,2.693835164058267765e+04
6.833410000000000650e+01,2.220171103853279783e+04
6.636159999999999570e+01,1.642696757298196826e+04
6.438859999999999673e+01,1.052781324764558121e+04
6.241499999999999915e+01,5.967884517380805846e+03
6.044100000000000250e+01,2.922224483871162192e+03
5.846640000000000015e+01,1.047554053364534411e+03
