1.838309999999999945e+03,-6.831482666094088927e+02
1.836750000000000000e+03,-2.078904762178863166e+02
1.835180000000000064e+03,-1.956588439305196516e+02
1.833609999999999900e+03,-1.400139543882833095e+02
1.832049999999999955e+03,-2.849167294587095967e+02
1.830480000000000018e+03,2.175459015218075365e+01
1.828910000000000082e+03,-1.911608329820446670e+02
1.827339999999999918e+03,-1.146629988613422029e+02
1.825779999999999973e+03,-4.143131665799446637e+02
1.824210000000000036e+03,-1.883889023906231159e+02
1.822640000000000100e+03,-7.225138094641442876e+01
1.821069999999999936e+03,2.714993977527046809e+02
1.819500000000000000e+03,3.458634337066905573e+02
1.817930000000000064e+03,5.324072691556648351e+01
1.816359999999999900e+03,-8.096872262065880932e+01
1.814789999999999964e+03,-5.649149020027834922e-01
1.813220000000000027e+03,-1.663478499284683494e+02
1.811650000000000091e+03,1.810824722999532241e+02
1.810079999999999927e+03,-3.826739482167322421e+02
1.808500000000000000e+03,-2.114549235321173910e+02
1.806930000000000064e+03,-1.255847450979345012e+02
1.805359999999999900e+03,2.218986905911879148e+02
1.803789999999999964e+03,-4.086046164648578269e+02
1.802210000000000036e+03,-2.937321400172804715e+02
1.800640000000000100e+03,-3.196088481224287534e+02
1.799069999999999936e+03,-2.486722989726695232e+02
1.797490000000000009e+03,-1.519597124581487151e+02
1.795920000000000073e+03,-6.339965643575123977e+02
1.794339999999999918e+03,-5.692572094720235327e+02
1.792769999999999982e+03,-1.898674624205013970e+02
1.791190000000000055e+03,-5.443013391640561167e+02
1.789619999999999891e+03,-3.074849931616481626e+02
1.788039999999999964e+03,-5.282921015342290048e+02
1.786470000000000027e+03,-4.462491565809614258e+02
1.784890000000000100e+03,-7.084294965825974941e+02
1.783309999999999945e+03,-3.687964099092641845e+02
1.781740000000000009e+03,-2.731135243090830045e+02
1.780160000000000082e+03,1.907463307351863477e+02
1.778579999999999927e+03,2.950196124544017948e+02
1.777000000000000000e+03,5.605063208485807991e+02
1.775430000000000064e+03,6.370424887916451553e+02
1.773849999999999909e+03,8.259559655568009475e+02
1.772269999999999982e+03,1.218882868996908655e+03
1.770690000000000055e+03,1.091423199111930444e+03
1.769109999999999900e+03,9.183769559019565349e+02
1.767529999999999973e+03,1.241744139366914169e+03
1.765950000000000045e+03,1.147924749506826629e+03
1.764369999999999891e+03,1.067718786321725929e+03
1.762789999999999964e+03,8.951262498115538619e+02
1.761210000000000036e+03,8.155471399763191584e+02
1.759619999999999891e+03,8.197462737316964194e+02
1.758039999999999964e+03,6.747941022253507981e+02
1.756460000000000036e+03,6.124553573939629132e+02
1.754880000000000109e+03,6.253300392375094816e+02
1.753289999999999964e+03,2.849833051253372105e+02
1.751710000000000036e+03,1.446849252977845026e+02
1.750130000000000109e+03,3.383999721451546066e+02
1.748539999999999964e+03,1.752938585114898160e+02
1.746960000000000036e+03,-8.996415631224226672e+01
1.745369999999999891e+03,-3.119031611212849384e+02
1.743789999999999964e+03,-3.008942376161576249e+02
1.742200000000000045e+03,-6.587861336005880730e+02
1.740619999999999891e+03,-7.804502717665745877e+02
1.739029999999999973e+03,-1.016755058926399215e+03
1.737450000000000045e+03,-1.104812258763544378e+03
1.735859999999999900e+03,-1.165889937098720111e+03
1.734269999999999982e+03,-1.470834018263180042e+03
1.732690000000000055e+03,-1.238610768117563566e+03
1.731099999999999909e+03,-1.590687740457389737e+03
1.729509999999999991e+03,-1.111451115626550745e+03
1.727920000000000073e+03,-1.402060893625006429e+03
1.726329999999999927e+03,-1.296297074452711968e+03
1.724750000000000000e+03,-1.275426351016489207e+03
1.723160000000000082e+03,-1.051815423019594164e+03
1.721569999999999936e+03,-8.990508978519937955e+02
1.719980000000000018e+03,-1.051932775513676461e+03
1.718390000000000100e+03,-1.090281056004678248e+03
1.716799999999999955e+03,-6.107957393249525921e+02
1.715210000000000036e+03,-8.647368254745233571e+02
1.713609999999999900e+03,-1.067777022929061786e+03
1.712019999999999982e+03,-1.137250829220414744e+03
1.710430000000000064e+03,-7.799710383410565555e+02
1.708839999999999918e+03,-8.713576502909854753e+02
1.707250000000000000e+03,-4.716306650702463230e+02
1.705650000000000091e+03,-5.261423630326171406e+02
1.704059999999999945e+03,-2.264080979536374798e+02
1.702470000000000027e+03,2.587797642960795201e+02
1.700869999999999891e+03,4.409692004508397076e+02
1.699279999999999973e+03,4.995643425587331876e+02
1.697690000000000055e+03,6.375130818373581860e+02
1.696089999999999918e+03,2.189036521092930343e+02
1.694500000000000000e+03,1.370996712461201241e+02
1.692900000000000091e+03,-2.022307052306132391e+00
1.691299999999999955e+03,3.519494833914213814e+02
1.689710000000000036e+03,4.462064650739484932e+02
1.688109999999999900e+03,5.761857069473335287e+02
1.686509999999999991e+03,5.256787175628414843e+02
1.684920000000000073e+03,6.489966617911122739e+02
1.683319999999999936e+03,3.417171238362934673e+02
1.681720000000000027e+03,8.332513546235859394e+02
1.680119999999999891e+03,1.033539354153035674e+03
1.678529999999999973e+03,8.777919436145166401e+02
1.676930000000000064e+03,1.337247394573627389e+03
1.675329999999999927e+03,1.149476614274870371e+03
1.673730000000000018e+03,1.112759602718244423e+03
1.672130000000000109e+03,1.682356359903773409e+03
1.670529999999999973e+03,1.477046885831456166e+03
1.668930000000000064e+03,1.577191180501264171e+03
1.667329999999999927e+03,1.660769243913237005e+03
1.665730000000000018e+03,1.655741076067322865e+03
1.664130000000000109e+03,1.679386676963578793e+03
1.662519999999999982e+03,1.686916085958466283e+03
1.660920000000000073e+03,1.532789310393622145e+03
1.659319999999999936e+03,1.720656303570955060e+03
1.657720000000000027e+03,1.139697065490414388e+03
1.656109999999999900e+03,1.220381980264894082e+03
1.654509999999999991e+03,9.427703657232777914e+02
1.652910000000000082e+03,7.927525199238007190e+02
1.651299999999999955e+03,6.759990856811200501e+02
1.649700000000000045e+03,5.115088634205749258e+02
1.648089999999999918e+03,5.669032253639306873e+02
1.646490000000000009e+03,5.762006266423268244e+02
1.644880000000000109e+03,4.547827847716980614e+02
1.643279999999999973e+03,3.997678095890296390e+02
1.641670000000000073e+03,5.047777639044797979e+02
1.640059999999999945e+03,7.069816596091841348e+02
1.638460000000000036e+03,8.007881627622118685e+02
1.636849999999999909e+03,-2.024014534705202095e+01
1.635240000000000009e+03,-3.066345120670303004e+02
1.633630000000000109e+03,-1.508349373977689538e+02
1.632029999999999973e+03,-1.223731011122581549e+02
1.630420000000000073e+03,-1.439657302569394233e+02
1.628809999999999945e+03,8.775558198765793350e+01
1.627200000000000045e+03,1.112708356215007370e+02
1.625589999999999918e+03,1.323800306446210016e+02
1.623980000000000018e+03,-7.167683294304879382e+01
1.622369999999999891e+03,-3.499597551414044574e+02
1.620759999999999991e+03,-4.773687359505274799e+02
1.619150000000000091e+03,-7.305237753703695489e+02
1.617539999999999964e+03,-9.799248734009306645e+02
1.615930000000000064e+03,-4.960120300422713626e+02
1.614309999999999945e+03,-9.083926130040199496e+02
1.612700000000000045e+03,-9.505518002743483521e+02
1.611089999999999918e+03,-6.737370461554091889e+02
1.609480000000000018e+03,-8.451083506471914006e+02
1.607859999999999900e+03,-1.254432734551650356e+03
1.606250000000000000e+03,-1.125136069672429585e+03
1.604640000000000100e+03,-1.299045463403963367e+03
1.603019999999999982e+03,-1.477467676232889062e+03
1.601410000000000082e+03,-1.148809100593411131e+03
1.599789999999999964e+03,-1.389743170328511042e+03
1.598180000000000064e+03,-1.129516625318050501e+03
1.596559999999999945e+03,-6.816425519593321951e+02
1.594940000000000055e+03,-9.036143634885956999e+02
1.593329999999999927e+03,-1.433485821125344955e+03
1.591710000000000036e+03,-1.044029489560809452e+03
1.590089999999999918e+03,-1.134419042884153896e+03
1.588480000000000018e+03,-1.056828503168188035e+03
1.586859999999999900e+03,-1.388009913397763739e+03
1.585240000000000009e+03,-1.161077208515285747e+03
1.583619999999999891e+03,-9.756303885206871200e+02
1.582000000000000000e+03,-1.155589453414097079e+03
1.580380000000000109e+03,-1.012334403195418417e+03
1.578759999999999991e+03,-1.159765237864659866e+03
1.577150000000000091e+03,-8.198765888689667918e+02
1.575519999999999982e+03,-6.526645618669863325e+02
1.573900000000000091e+03,-9.579330512000451563e+02
1.572279999999999973e+03,-8.800874254210211802e+02
1.570660000000000082e+03,-6.550476845299854176e+02
1.569039999999999964e+03,-4.368138285268505570e+02
1.567420000000000073e+03,-2.873658574116561795e+02
1.565799999999999955e+03,-4.676237711844005389e+02
1.564170000000000073e+03,-4.644522408175544115e+02
1.562549999999999955e+03,-1.896818372358247871e+02
1.560930000000000064e+03,-2.457373185420728987e+02
1.559299999999999955e+03,1.340369062200916233e+02
1.557680000000000064e+03,2.526097422683233162e+02
1.556059999999999945e+03,6.469166934286040487e+02
1.554430000000000064e+03,5.742536125860933680e+02
1.552809999999999945e+03,6.852888110082130879e+01
1.551180000000000064e+03,3.839542924112320179e+02
1.549549999999999955e+03,2.054939936321898131e+02
1.547930000000000064e+03,2.057917817437555641e+02
1.546299999999999955e+03,1.969599751176720019e+02
1.544680000000000064e+03,2.497260805836849613e+02
1.543049999999999955e+03,4.315627661105099833e+02
1.541420000000000073e+03,3.732337415478978073e+02
1.539789999999999964e+03,2.986590068958321353e+02
1.538170000000000073e+03,7.257618342010391643e+02
1.536539999999999964e+03,6.858955917019193294e+02
1.534910000000000082e+03,9.307436391133232974e+02
1.533279999999999973e+03,9.558459764353028731e+02
1.531650000000000091e+03,9.950426036677818047e+02
1.530019999999999982e+03,1.001333520810847403e+03
1.528390000000000100e+03,8.782387278644309845e+02
1.526759999999999991e+03,1.034818224828573875e+03
1.525130000000000109e+03,8.667320117032650160e+02
1.523500000000000000e+03,1.132280088488536421e+03
1.521859999999999900e+03,1.143540059819206363e+03
1.520230000000000018e+03,1.079076804093696410e+03
1.518599999999999909e+03,1.106347838278743438e+03
1.516970000000000027e+03,8.795931623743526870e+02
1.515329999999999927e+03,1.184150732225883985e+03
1.513700000000000045e+03,1.144004723810721771e+03
1.512069999999999936e+03,1.094813005306132254e+03
1.510430000000000064e+03,9.349937960997776827e+02
1.508799999999999955e+03,8.782307450844527921e+02
1.507160000000000082e+03,1.407180379241501214e+03
1.505529999999999973e+03,1.032065995715456665e+03
1.503890000000000100e+03,6.418244732359453337e+02
1.502259999999999991e+03,9.499387571991246659e+02
1.500619999999999891e+03,5.907260780830547446e+02
1.498980000000000018e+03,3.573678647516935598e+02
1.497349999999999909e+03,5.562251937828405062e+02
1.495710000000000036e+03,3.811358238149259705e+02
1.494069999999999936e+03,5.739009196316910675e+02
1.492430000000000064e+03,1.141804812331974972e+02
1.490789999999999964e+03,4.805545086194179021e+02
1.489160000000000082e+03,3.266436378759535728e+02
1.487519999999999982e+03,5.003865086255827919e+02
1.485880000000000109e+03,3.504638451599312248e+02
1.484240000000000009e+03,2.412956474790116772e+02
1.482599999999999909e+03,3.626191558281425387e+01
1.480960000000000036e+03,3.244026494713034481e+02
1.479319999999999936e+03,-9.008215085547999479e+01
1.477670000000000073e+03,-8.537250404112273827e+01
1.476029999999999973e+03,-2.160682845924602589e+02
1.474390000000000100e+03,-2.326695993591274600e+02
1.472750000000000000e+03,-4.212164483410306275e+02
1.471109999999999900e+03,-2.526888315382238943e+02
1.469460000000000036e+03,-4.248863260264624842e+02
1.467819999999999936e+03,-7.226696894482156495e+02
1.466180000000000064e+03,-5.987785870852676453e+02
1.464529999999999973e+03,-5.903523308574804105e+02
1.462890000000000100e+03,-9.164722087191039464e+02
1.461240000000000009e+03,-8.190167557660170132e+02
1.459599999999999909e+03,-5.961876138522056863e+02
1.457950000000000045e+03,-9.163829641738557257e+02
1.456309999999999945e+03,-6.863248024845815962e+02
1.454660000000000082e+03,-3.888509560809179675e+02
1.453009999999999991e+03,-6.107424669427127810e+02
1.451369999999999891e+03,-4.839207314873201540e+02
1.449720000000000027e+03,-3.368230456238234183e+02
1.448069999999999936e+03,-2.783307170257321559e+02
1.446420000000000073e+03,-1.370237456931063207e+02
1.444769999999999982e+03,-8.402213162591215223e+01
1.443119999999999891e+03,7.011412517586722970e+01
1.441480000000000018e+03,1.056230963695415994e+02
1.439829999999999927e+03,1.735685498966049636e+02
1.438180000000000064e+03,2.485286461581999902e+02
1.436529999999999973e+03,2.233851543860509992e-01
1.434880000000000109e+03,2.100327668851532508e+02
1.433220000000000027e+03,1.466591634123033145e+02
1.431569999999999936e+03,7.337791935600398574e+01
1.429920000000000073e+03,-2.483686819657013984e+02
1.428269999999999982e+03,4.839935944713943172e+01
1.426619999999999891e+03,-4.201779564054595539e+02
1.424960000000000036e+03,-1.699978132045507664e+02
1.423309999999999945e+03,-2.804257548441528343e+02
1.421660000000000082e+03,5.046094625080877449e+01
1.420000000000000000e+03,1.058453731686167885e+02
1.418349999999999909e+03,-1.621985515234555351e+02
1.416700000000000045e+03,-6.472783348095254041e+01
1.415039999999999964e+03,-1.207391228462220170e+02
1.413380000000000109e+03,-3.045559145139122847e+01
1.411730000000000018e+03,-5.524076771749241743e+01
1.410069999999999936e+03,1.017723159158631461e+02
1.408420000000000073e+03,-2.878234861373057356e+02
1.406759999999999991e+03,-5.648085026544868015e+01
1.405099999999999909e+03,-8.860339363348612096e+01
1.403450000000000045e+03,-1.565508999524172395e+01
1.401789999999999964e+03,2.334519188752456103e+02
1.400130000000000109e+03,5.448737485057790764e+02
1.398470000000000027e+03,4.163703988964552991e+02
1.396809999999999945e+03,5.430018700472282944e+02
1.395150000000000091e+03,3.351281619580695406e+02
1.393490000000000009e+03,4.593892746290221112e+02
1.391829999999999927e+03,5.547252080600592308e+02
1.390170000000000073e+03,7.235159622512146598e+02
1.388509999999999991e+03,6.893815372024691897e+02
1.386849999999999909e+03,3.606219329138257308e+02
1.385190000000000055e+03,5.957371493852406275e+02
1.383529999999999973e+03,7.621871866168075940e+02
1.381859999999999900e+03,6.668971790241921553e+02
1.380200000000000045e+03,5.903569470576039748e+02
1.378539999999999964e+03,7.863115358511131490e+02
1.376880000000000109e+03,3.332409454047447070e+02
1.375210000000000036e+03,1.340106677987932926e+02
1.373549999999999955e+03,2.504698081543174339e+02
1.371880000000000109e+03,2.224094404514471535e+02
1.370220000000000027e+03,-1.563816883911495097e+02
1.368549999999999955e+03,2.586678538090927759e+02
1.366890000000000100e+03,2.466864557683729799e+02
1.365220000000000027e+03,3.626259078717412194e+02
1.363559999999999945e+03,1.739742406329023652e+02
1.361890000000000100e+03,2.534036026393441716e+02
1.360220000000000027e+03,6.044796450711146463e+01
1.358549999999999955e+03,2.127873262361972593e+02
1.356890000000000100e+03,-8.544479011719522532e+01
1.355220000000000027e+03,3.156448151500080712e+01
1.353549999999999955e+03,4.942875300848390907e+01
1.351880000000000109e+03,8.348802436329424381e+01
1.350210000000000036e+03,-9.205770442055654712e+01
1.348539999999999964e+03,-3.941884333431225969e+02
1.346869999999999891e+03,-5.326416240437538363e+01
1.345200000000000045e+03,1.506951083956810180e+02
1.343529999999999973e+03,1.269293790570809506e+02
1.341859999999999900e+03,-5.242135042020527180e+01
1.340190000000000055e+03,-1.713708003620558884e+01
1.338519999999999982e+03,-2.934178097908879863e+02
1.336849999999999909e+03,-2.923635396842437331e+02
1.335170000000000073e+03,-3.322266241186443949e+02
1.333500000000000000e+03,-2.064622644698247313e+02
1.331829999999999927e+03,-4.825629049597046105e+02
1.330150000000000091e+03,-5.688006299942207988e+02
1.328480000000000018e+03,-7.932311809419334168e+02
1.326799999999999955e+03,-8.470386362573481165e+02
1.325130000000000109e+03,-1.013019097662938293e+03
1.323450000000000045e+03,-8.090362832593236817e+02
1.321779999999999973e+03,-9.396066551227122545e+02
1.320099999999999909e+03,-9.036135710000235122e+02
1.318430000000000064e+03,-4.741538533212878974e+02
1.316750000000000000e+03,-5.481904994795477251e+02
1.315069999999999936e+03,-3.717119655995920766e+02
1.313400000000000091e+03,-4.334470686978456797e+02
1.311720000000000027e+03,-3.439582650988304522e+02
1.310039999999999964e+03,-5.473942814616020769e+02
1.308359999999999900e+03,-5.031351177861652104e+02
1.306680000000000064e+03,-8.230807740725285839e+02
1.305000000000000000e+03,-3.314712503206537804e+02
1.303319999999999936e+03,-5.624865465305774705e+02
1.301640000000000100e+03,-4.778666627022903413e+02
1.299960000000000036e+03,-1.858315988357790047e+02
1.298279999999999973e+03,-3.458013549310562667e+02
1.296599999999999909e+03,-5.249559309881296940e+02
1.294920000000000073e+03,-5.139753270069777500e+02
1.293240000000000009e+03,-3.878595429876004346e+02
1.291559999999999945e+03,-3.030885789300373290e+02
1.289869999999999891e+03,-4.711923528146435274e+02
1.288190000000000055e+03,-3.367309383232786786e+02
1.286509999999999991e+03,-4.277143437936902046e+02
1.284819999999999936e+03,-5.325722155963303521e+02
1.283140000000000100e+03,-2.439251706329523586e+02
1.281450000000000045e+03,-4.006124107492069015e+02
1.279769999999999982e+03,-3.055149153520469554e+02
1.278079999999999927e+03,-1.729152378192520700e+01
1.276400000000000091e+03,-3.635835779509507120e+02
1.274710000000000036e+03,-2.666095546944416128e+02
1.273029999999999973e+03,1.333688415703509236e+02
1.271339999999999918e+03,2.788934965132066282e+02
1.269650000000000091e+03,3.061535127468960127e+02
1.267960000000000036e+03,2.759888902713573771e+02
1.266279999999999973e+03,4.156082777610863559e+02
1.264589999999999918e+03,1.494742869719484588e+02
1.262900000000000091e+03,3.193956574735930189e+02
1.261210000000000036e+03,2.485723892660171259e+02
1.259519999999999982e+03,3.670044823492498836e+02
1.257829999999999927e+03,4.762319367233139928e+02
1.256140000000000100e+03,5.191747523881058441e+02
1.254450000000000045e+03,3.303129293437232263e+02
1.252759999999999991e+03,1.090646759016090073e+01
1.251069999999999936e+03,4.818953671273775399e+02
1.249380000000000109e+03,7.951796279553818749e+02
1.247680000000000064e+03,5.770916012470406713e+02
1.245990000000000009e+03,5.647466755518544232e+02
1.244299999999999955e+03,7.341371111474581994e+02
1.242609999999999900e+03,1.056162908033875283e+03
1.240910000000000082e+03,1.074016781502607046e+03
1.239220000000000027e+03,1.114613391865801532e+03
1.237519999999999982e+03,1.556338261139637325e+03
1.235829999999999927e+03,1.391305684979641228e+03
1.234130000000000109e+03,1.203961550058491412e+03
1.232440000000000055e+03,1.386579787375303567e+03
1.230740000000000009e+03,1.476006648259281064e+03
1.229049999999999955e+03,1.545695699052870623e+03
1.227349999999999909e+03,1.430613555741903838e+03
1.225650000000000091e+03,1.406666956049986766e+03
1.223960000000000036e+03,1.797262272506399313e+03
1.222259999999999991e+03,1.820526668619553675e+03
1.220559999999999945e+03,2.173586608351775794e+03
1.218859999999999900e+03,2.155322091703026672e+03
1.217160000000000082e+03,2.236033118673352874e+03
1.215460000000000036e+03,2.395279689262737520e+03
1.213759999999999991e+03,2.283901803471206222e+03
1.212059999999999945e+03,2.669359461298707174e+03
1.210359999999999900e+03,2.549552662745263660e+03
1.208660000000000082e+03,2.650341407810890814e+03
1.206960000000000036e+03,2.956845696495583979e+03
1.205259999999999991e+03,2.879805528799333842e+03
1.203559999999999945e+03,2.802880904722158448e+03
1.201859999999999900e+03,3.119871824264046154e+03
1.200150000000000091e+03,3.107633194958427339e+03
1.198450000000000045e+03,3.192315293171486701e+03
1.196750000000000000e+03,3.333952935003588209e+03
1.195039999999999964e+03,3.341501302825214225e+03
1.193339999999999918e+03,3.496970123328515911e+03
1.191630000000000109e+03,3.707249853225235711e+03
1.189930000000000064e+03,4.195509852399700321e+03
1.188220000000000027e+03,4.162300944371570949e+03
1.186519999999999982e+03,4.180172122217220021e+03
1.184809999999999945e+03,4.192234576264221687e+03
1.183099999999999909e+03,4.938872757334233029e+03
1.181400000000000091e+03,4.907790748903149506e+03
1.179690000000000055e+03,4.833740292048270931e+03
1.177980000000000018e+03,4.985525562216396793e+03
1.176269999999999982e+03,5.587806559407559689e+03
1.174569999999999936e+03,5.306886999751863186e+03
1.172859999999999900e+03,5.520359359018155374e+03
1.171150000000000091e+03,5.985107445307425223e+03
1.169440000000000055e+03,5.772051258619714645e+03
1.167730000000000018e+03,5.964350798955012579e+03
1.166019999999999982e+03,6.164866066313334159e+03
1.164309999999999945e+03,6.381677060694637476e+03
1.162599999999999909e+03,6.746903782098946976e+03
1.160880000000000109e+03,6.930863250163267367e+03
1.159170000000000073e+03,7.385301517584506655e+03
1.157460000000000036e+03,7.416755512028757948e+03
1.155750000000000000e+03,7.790965233496011933e+03
1.154029999999999973e+03,7.774868070044685737e+03
1.152319999999999936e+03,8.305029337528874748e+03
1.150609999999999900e+03,8.435666332036023960e+03
1.148890000000000100e+03,8.692596718075117678e+03
1.147180000000000064e+03,8.425985258599219378e+03
1.145460000000000036e+03,8.919367375134883332e+03
1.143750000000000000e+03,9.035947461675881641e+03
1.142029999999999973e+03,9.427941308708075667e+03
1.140319999999999936e+03,9.525252941265993286e+03
1.138599999999999909e+03,1.014627851879475929e+04
1.136880000000000109e+03,1.003502000782612595e+04
1.135160000000000082e+03,1.063743740836017241e+04
1.133450000000000045e+03,1.092495222492281755e+04
1.131730000000000018e+03,1.071828135595338244e+04
1.130009999999999991e+03,1.110588639848657476e+04
1.128289999999999964e+03,1.153464735252242826e+04
1.126569999999999936e+03,1.164862421806094062e+04
1.124849999999999909e+03,1.190799699510204664e+04
1.123130000000000109e+03,1.197368568364581733e+04
1.121410000000000082e+03,1.202983028369222302e+04
1.119690000000000055e+03,1.240621079524127708e+04
1.117970000000000027e+03,1.263834721829298360e+04
1.116250000000000000e+03,1.290819955284731986e+04
1.114529999999999973e+03,1.343376779890431499e+04
1.112799999999999955e+03,1.370259156204276951e+04
1.111079999999999927e+03,1.392925172361377918e+04
1.109359999999999900e+03,1.409376779668738891e+04
1.107630000000000109e+03,1.425945966490656429e+04
1.105910000000000082e+03,1.466230765349420835e+04
1.104190000000000055e+03,1.488557155358450837e+04
1.102460000000000036e+03,1.512883152688440168e+04
1.100740000000000009e+03,1.539052734248869820e+04
1.099009999999999991e+03,1.547023941685791942e+04
1.097279999999999973e+03,1.598534758828510530e+04
1.095559999999999945e+03,1.603573132341480232e+04
1.093829999999999927e+03,1.625295159591130505e+04
1.092099999999999909e+03,1.671704796546575380e+04
1.090380000000000109e+03,1.648433962012083794e+04
1.088650000000000091e+03,1.710136809074465418e+04
1.086920000000000073e+03,1.756771265842640423e+04
1.085190000000000055e+03,1.772475332316607819e+04
1.083460000000000036e+03,1.815761008496375871e+04
1.081730000000000018e+03,1.841836294381936023e+04
1.080000000000000000e+03,1.896833189973293338e+04
1.078269999999999982e+03,1.916411695270445489e+04
1.076539999999999964e+03,1.939685810273390962e+04
1.074809999999999945e+03,1.948745534982134996e+04
1.073079999999999927e+03,1.989512869396671886e+04
1.071349999999999909e+03,2.010373813517006056e+04
1.069609999999999900e+03,2.042520560194762948e+04
1.067880000000000109e+03,2.092116733031343028e+04
1.066150000000000091e+03,2.123144515573719400e+04
1.064420000000000073e+03,2.178997907821893750e+04
1.062680000000000064e+03,2.194461139899904083e+04
1.060950000000000045e+03,2.254865760864324693e+04
1.059210000000000036e+03,2.279914240321681427e+04
1.057480000000000018e+03,2.295646090002352139e+04
1.055740000000000009e+03,2.323391816839060630e+04
1.054009999999999991e+03,2.352970895235978242e+04
1.052269999999999982e+03,2.374571869452032843e+04
1.050529999999999973e+03,2.392222472036983527e+04
1.048799999999999955e+03,2.422446398160605168e+04
1.047059999999999945e+03,2.457210248124902137e+04
1.045319999999999936e+03,2.481493726458094898e+04
1.043579999999999927e+03,2.495182833160184964e+04
1.041849999999999909e+03,2.539875226020961418e+04
1.040109999999999900e+03,2.564175580102397362e+04
1.038369999999999891e+03,2.567699562552728457e+04
1.036630000000000109e+03,2.629179173371954676e+04
1.034890000000000100e+03,2.614422412560075463e+04
1.033150000000000091e+03,2.594865280117095244e+04
1.031410000000000082e+03,2.644411776043007558e+04
1.029660000000000082e+03,2.664908308057115210e+04
1.027920000000000073e+03,2.686274070079258672e+04
1.026180000000000064e+03,2.650459460470297927e+04
1.024440000000000055e+03,2.674668479230233788e+04
1.022690000000000055e+03,2.672885571565917780e+04
1.020950000000000045e+03,2.693595856422084034e+04
1.019210000000000036e+03,2.699013769647146546e+04
1.017460000000000036e+03,2.717195784577067388e+04
1.015720000000000027e+03,2.724998963898361399e+04
1.013970000000000027e+03,2.729654263695182453e+04
1.012230000000000018e+03,2.718180709112708428e+04
1.010480000000000018e+03,2.712135293776429171e+04
1.008740000000000009e+03,2.701543005290185101e+04
1.006990000000000009e+03,2.695686874820807134e+04
1.005240000000000009e+03,2.666800391490990296e+04
1.003500000000000000e+03,2.665055006828322075e+04
1.001750000000000000e+03,2.624725808365404373e+04
1.000000000000000000e+03,2.619114257042053214e+04
9.982519999999999527e+02,2.609154237522899348e+04
9.965030000000000427e+02,2.601725919988126407e+04
9.947540000000000191e+02,2.590793247711013100e+04
9.930040000000000191e+02,2.542870281181023893e+04
9.912540000000000191e+02,2.535112961790595000e+04
9.895030000000000427e+02,2.496637351912180748e+04
9.877519999999999527e+02,2.503249391056314926e+04
9.860009999999999764e+02,2.473867079222994653e+04
9.842490000000000236e+02,2.424978481610489689e+04
9.824969999999999573e+02,2.416501534904590517e+04
9.807440000000000282e+02,2.381592306188699149e+04
9.789919999999999618e+02,2.348978662238309334e+04
9.772380000000000564e+02,2.331568807132139045e+04
9.754840000000000373e+02,2.292510606703917438e+04
9.737300000000000182e+02,2.261424060953645676e+04
9.719759999999999991e+02,2.226025169881323382e+04
9.702210000000000036e+02,2.221170006230061699e+04
9.684650000000000318e+02,2.179782572831594734e+04
9.667100000000000364e+02,2.106436723254715616e+04
9.649539999999999509e+02,2.104908605818993965e+04
9.631970000000000027e+02,2.078886223357778363e+04
9.614400000000000546e+02,2.047731501239594945e+04
9.596829999999999927e+02,2.024702439464448253e+04
9.579249999999999545e+02,2.008895117388744984e+04
9.561670000000000300e+02,1.969181457546583988e+04
9.544080000000000155e+02,1.956481541185970855e+04
9.526490000000000009e+02,1.914915288950494141e+04
9.508899999999999864e+02,1.879768700840150268e+04
9.491299999999999955e+02,1.872123860941668681e+04
9.473700000000000045e+02,1.821508687060985540e+04
9.456090000000000373e+02,1.784677265178569360e+04
9.438479999999999563e+02,1.772679511207691394e+04
9.420869999999999891e+02,1.710535425148352078e+04
9.403250000000000455e+02,1.717739095822969830e+04
9.385629999999999882e+02,1.692086436303945811e+04
9.367999999999999545e+02,1.650715537309587671e+04
9.350370000000000346e+02,1.635116310017475189e+04
9.332740000000000009e+02,1.580974754427607695e+04
9.315099999999999909e+02,1.583930964103480801e+04
9.297450000000000045e+02,1.551416941891349416e+04
9.279809999999999945e+02,1.530758499714399659e+04
9.262160000000000082e+02,1.491765827547489607e+04
9.244500000000000455e+02,1.438758928238486988e+04
9.226839999999999691e+02,1.433233706325860112e+04
9.209180000000000064e+02,1.386248161809606972e+04
9.191509999999999536e+02,1.367284394900403277e+04
9.173840000000000146e+02,1.329436307287766977e+04
9.156169999999999618e+02,1.300013898971700837e+04
9.138490000000000464e+02,1.229607273014510429e+04
9.120810000000000173e+02,1.216074328255159344e+04
9.103120000000000118e+02,1.222883169658301631e+04
9.085430000000000064e+02,1.172801694161628984e+04
9.067730000000000246e+02,1.116628008633214631e+04
9.050030000000000427e+02,1.085594008108405978e+04
9.032329999999999472e+02,1.045125692587201775e+04
9.014619999999999891e+02,1.036931171794154216e+04
8.996910000000000309e+02,1.014798337909208203e+04
8.979189999999999827e+02,9.436953025624876318e+03
8.961470000000000482e+02,9.198659560294414405e+03
8.943750000000000000e+02,8.891962983100667770e+03
8.926019999999999754e+02,8.535344438941960107e+03
8.908289999999999509e+02,8.190242801986467384e+03
8.890549999999999500e+02,7.946899236209705123e+03
8.872809999999999491e+02,7.629332596713415114e+03
8.855069999999999482e+02,7.406102883497558651e+03
8.837319999999999709e+02,7.056271289166987117e+03
8.819569999999999936e+02,6.901296640204855066e+03
8.801810000000000400e+02,6.643240148314755061e+03
8.784049999999999727e+02,6.627120620891873841e+03
8.766280000000000427e+02,6.288619288749243424e+03
8.748519999999999754e+02,6.034953699812802370e+03
8.730739999999999554e+02,6.108447575194128149e+03
8.712970000000000255e+02,5.636357193781623209e+03
8.695180000000000291e+02,5.537186334047699347e+03
8.677400000000000091e+02,5.495191217519932252e+03
8.659610000000000127e+02,5.551094391873790300e+03
8.641810000000000400e+02,5.366815885813863133e+03
8.624020000000000437e+02,5.185493113391872612e+03
8.606209999999999809e+02,5.153569996603284380e+03
8.588410000000000082e+02,5.048082613452657824e+03
8.570599999999999454e+02,5.237813607329720980e+03
8.552780000000000200e+02,5.268443006971334398e+03
8.534969999999999573e+02,5.310288130671950057e+03
8.517140000000000555e+02,5.347273044111352647e+03
8.499320000000000164e+02,5.399913681609745254e+03
8.481490000000000009e+02,5.278532782378730190e+03
8.463650000000000091e+02,5.638130375187407481e+03
8.445810000000000173e+02,5.990045085640529578e+03
8.427970000000000255e+02,5.932456913738133153e+03
8.410119999999999436e+02,6.326087281850879663e+03
8.392269999999999754e+02,6.425454786803653406e+03
8.374410000000000309e+02,6.889000870173469593e+03
8.356549999999999727e+02,7.018084109589632135e+03
8.338690000000000282e+02,7.463184505052129680e+03
8.320819999999999936e+02,7.738083526960916060e+03
8.302949999999999591e+02,8.001119724133117415e+03
8.285069999999999482e+02,8.487134586196523742e+03
8.267190000000000509e+02,8.594866642751170730e+03
8.249310000000000400e+02,8.985255893797075259e+03
8.231420000000000528e+02,9.386563857817192911e+03
8.213529999999999518e+02,9.739049035567164537e+03
8.195629999999999882e+02,9.899332964779299800e+03
8.177730000000000246e+02,1.017717412697063264e+04
8.159819999999999709e+02,1.033183407913356496e+04
8.141910000000000309e+02,1.078215128353579348e+04
8.123999999999999773e+02,1.087202574017731968e+04
8.106079999999999472e+02,1.141233903495417326e+04
8.088160000000000309e+02,1.145250960124114499e+04
8.070230000000000246e+02,1.213487904421596613e+04
8.052300000000000182e+02,1.197430577798251761e+04
8.034370000000000118e+02,1.246260980254083552e+04
8.016430000000000291e+02,1.230693275200445350e+04
7.998479999999999563e+02,1.305909465532001923e+04
7.980539999999999736e+02,1.299261223460078327e+04
7.962590000000000146e+02,1.319538878703660157e+04
7.944629999999999654e+02,1.325616434159025084e+04
7.926670000000000300e+02,1.334701724484506849e+04
7.908709999999999809e+02,1.368954749680103123e+04
7.890739999999999554e+02,1.358149679917299363e+04
7.872770000000000437e+02,1.362048346957071772e+04
7.854790000000000418e+02,1.378164922904451669e+04
7.836810000000000400e+02,1.367253237587950571e+04
7.818819999999999482e+02,1.385131465047209349e+04
7.800839999999999463e+02,1.372903258169987384e+04
7.782839999999999918e+02,1.383621141977932712e+04
7.764840000000000373e+02,1.379672768392306170e+04
7.746839999999999691e+02,1.383926137413108518e+04
7.728840000000000146e+02,1.379077249040338211e+04
7.710829999999999700e+02,1.398670283121782268e+04
7.692809999999999491e+02,1.382185242563405336e+04
7.674790000000000418e+02,1.388139948486062349e+04
7.656770000000000209e+02,1.372040400889757439e+04
7.638750000000000000e+02,1.383188599774491013e+04
7.620710000000000264e+02,1.382374914529359376e+04
7.602680000000000291e+02,1.412498793979093898e+04
7.584640000000000555e+02,1.430206608483596210e+04
7.566599999999999682e+02,1.423138173348049168e+04
7.548550000000000182e+02,1.421931677148332528e+04
7.530499999999999545e+02,1.434908933249637630e+04
7.512440000000000282e+02,1.445684132169990335e+04
7.494379999999999882e+02,1.413323085333508061e+04
7.476309999999999718e+02,1.434493985201441683e+04
7.458250000000000455e+02,1.426988447822632588e+04
7.440170000000000528e+02,1.414991053496467066e+04
7.422100000000000364e+02,1.438019221923560690e+04
7.404009999999999536e+02,1.467027539236188750e+04
7.385929999999999609e+02,1.466553419302077236e+04
7.367839999999999918e+02,1.483115255793863616e+04
7.349740000000000464e+02,1.479179051630415051e+04
7.331639999999999873e+02,1.501112609489471652e+04
7.313540000000000418e+02,1.520579929371034086e+04
7.295430000000000064e+02,1.520777213464826491e+04
7.277319999999999709e+02,1.545414261528648785e+04
7.259210000000000491e+02,1.540763073562498175e+04
7.241090000000000373e+02,1.565487854678735312e+04
7.222960000000000491e+02,1.556028607801062753e+04
7.204840000000000373e+02,1.600218921729127032e+04
7.186699999999999591e+02,1.622461417650632939e+04
7.168569999999999709e+02,1.630827474377873295e+04
7.150430000000000064e+02,1.625419508961844986e+04
7.132279999999999518e+02,1.659183524329482316e+04
7.114130000000000109e+02,1.662245311468001455e+04
7.095979999999999563e+02,1.684626870377402520e+04
7.077820000000000391e+02,1.706648414951380255e+04
7.059660000000000082e+02,1.742621733249143290e+04
7.041490000000000009e+02,1.734695041118360678e+04
7.023319999999999936e+02,1.762328124665343057e+04
7.005140000000000100e+02,1.774385201692812552e+04
6.986970000000000027e+02,1.808915837572579039e+04
6.968780000000000427e+02,1.850926688646202092e+04
6.950589999999999691e+02,1.853251319308774691e+04
6.932400000000000091e+02,1.876803729560293141e+04
6.914210000000000491e+02,1.882817919400757091e+04
6.896000000000000227e+02,1.888956336175084289e+04
6.877799999999999727e+02,1.901824311801706790e+04
6.859589999999999463e+02,1.932270294605490199e+04
6.841380000000000337e+02,1.927270060913704947e+04
6.823160000000000309e+02,1.951457838316717243e+04
6.804940000000000282e+02,1.960247401183517650e+04
6.786710000000000491e+02,1.974202979064904503e+04
6.768479999999999563e+02,2.013226344370514562e+04
6.750240000000000009e+02,2.010647728612648643e+04
6.732010000000000218e+02,2.037076669747185224e+04
6.713759999999999764e+02,2.062057865254105855e+04
6.695510000000000446e+02,2.068456852109338797e+04
6.677259999999999991e+02,2.076607630312883703e+04
6.659009999999999536e+02,2.091778199864742783e+04
6.640739999999999554e+02,2.108739035567714018e+04
6.622480000000000473e+02,2.103819428163088742e+04
6.604210000000000491e+02,2.154745853436836478e+04
6.585940000000000509e+02,2.186832073987292824e+04
6.567659999999999627e+02,2.190626331146673328e+04
6.549379999999999882e+02,2.198448385548567603e+04
6.531090000000000373e+02,2.208002480492081668e+04
6.512799999999999727e+02,2.231798374645000149e+04
6.494500000000000455e+02,2.253138313274386019e+04
6.476200000000000045e+02,2.272562053081137128e+04
6.457899999999999636e+02,2.351997594065255544e+04
6.439589999999999463e+02,2.325553184447089006e+04
6.421280000000000427e+02,2.370038577975325461e+04
6.402960000000000491e+02,2.378150024840430706e+04
6.384640000000000555e+02,2.405861276822054788e+04
6.366319999999999482e+02,2.451442333920193778e+04
6.347989999999999782e+02,2.456067449281828885e+04
6.329650000000000318e+02,2.472156625864551461e+04
6.311309999999999718e+02,2.512235611507243448e+04
6.292970000000000255e+02,2.545272406209906330e+04
6.274619999999999891e+02,2.626159267065662425e+04
6.256269999999999527e+02,2.627867938954728743e+04
6.237920000000000300e+02,2.671314421877107816e+04
6.219560000000000173e+02,2.741138975887274864e+04
6.201190000000000282e+02,2.792481603947661642e+04
6.182820000000000391e+02,2.811878046991265728e+04
6.164450000000000500e+02,2.894548305018090468e+04
6.146069999999999709e+02,2.970332642035208119e+04
6.127690000000000055e+02,3.031780796012112114e+04
6.109299999999999500e+02,3.116573032933520153e+04
6.090910000000000082e+02,3.197361088792357623e+04
6.072519999999999527e+02,3.276378963588625629e+04
6.054120000000000346e+02,3.342760926274850499e+04
6.035720000000000027e+02,3.416454709877222194e+04
6.017309999999999945e+02,3.510580585328064626e+04
5.998899999999999864e+02,3.591388283674850391e+04
5.980480000000000018e+02,3.633972077830769558e+04
5.962060000000000173e+02,3.698499696863505233e+04
5.943630000000000564e+02,3.790797415668188478e+04
5.925199999999999818e+02,3.843774961331632221e+04
5.906770000000000209e+02,3.893234333853836142e+04
5.888329999999999700e+02,3.948975811104197783e+04
5.869890000000000327e+02,3.973977117196340259e+04
5.851440000000000055e+02,4.067204531983764173e+04
5.832989999999999782e+02,4.117683777597064909e+04
5.814529999999999745e+02,4.138461135874914908e+04
5.796069999999999709e+02,4.199972326963816158e+04
5.777609999999999673e+02,4.220029350863766012e+04
5.759139999999999873e+02,4.283166492392544751e+04
5.740660000000000309e+02,4.304571754530328326e+04
5.722179999999999609e+02,4.351194853452735697e+04
5.703700000000000045e+02,4.385059789159767388e+04
5.685209999999999582e+02,4.398448850445459539e+04
5.666720000000000255e+02,4.419433750504175987e+04
5.648229999999999791e+02,4.422226489335914084e+04
5.629729999999999563e+02,4.450755358718661591e+04
5.611219999999999573e+02,4.517196361637433438e+04
5.592709999999999582e+02,4.536171207309255260e+04
5.574199999999999591e+02,4.539429895734129241e+04
5.555679999999999836e+02,4.644008722672748991e+04
5.537160000000000082e+02,4.677949394356051198e+04
5.518630000000000564e+02,4.720090208537428407e+04
5.500099999999999909e+02,4.798268869456190441e+04
5.481570000000000391e+02,4.866487377112331160e+04
5.463029999999999973e+02,4.891674032249650190e+04
5.444479999999999791e+02,4.983400837859626336e+04
5.425940000000000509e+02,5.087407191456420696e+04
5.407380000000000564e+02,5.180574001257615600e+04
5.388819999999999482e+02,5.270066663780750241e+04
5.370259999999999536e+02,5.392655179025830148e+04
5.351699999999999591e+02,5.498383546992850461e+04
5.333129999999999882e+02,5.612478075412175531e+04
5.314550000000000409e+02,5.818856767280117492e+04
5.295969999999999800e+02,5.871483315865089389e+04
5.277390000000000327e+02,6.024117721167091804e+04
5.258799999999999955e+02,6.130510294914261613e+04
5.240199999999999818e+02,6.310163040106137487e+04
5.221609999999999445e+02,6.440837332285523735e+04
5.203010000000000446e+02,6.557343797909852583e+04
5.184400000000000546e+02,6.662342439980275230e+04
5.165789999999999509e+02,6.813920944768426125e+04
5.147169999999999845e+02,6.918025630006364372e+04
5.128550000000000182e+02,7.013566179964413459e+04
5.109929999999999950e+02,7.123748594642573153e+04
5.091299999999999955e+02,7.198285194777825382e+04
5.072669999999999959e+02,7.230551661636648350e+04
5.054030000000000200e+02,7.333256317960558226e+04
5.035389999999999873e+02,7.363482843012572266e+04
5.016739999999999782e+02,7.441517561539821327e+04
4.998090000000000259e+02,7.469074150800784992e+04
4.979429999999999836e+02,7.563158937549281109e+04
4.960769999999999982e+02,7.568465597038179112e+04
4.942110000000000127e+02,7.591574129267480748e+04
4.923439999999999941e+02,7.558310864002374001e+04
4.904769999999999754e+02,7.603069473485433264e+04
4.886089999999999804e+02,7.590696289490684285e+04
4.867409999999999854e+02,7.557884982252935879e+04
4.848720000000000141e+02,7.552581885556134512e+04
4.830029999999999859e+02,7.529920667626248905e+04
4.811329999999999814e+02,7.546787664258209406e+04
4.792629999999999768e+02,7.523276541668076243e+04
4.773929999999999723e+02,7.513347299855849997e+04
4.755219999999999914e+02,7.404572277634288184e+04
4.736499999999999773e+02,7.406023478022294876e+04
4.717789999999999964e+02,7.351968222386976413e+04
4.699060000000000059e+02,7.368409533207643835e+04
4.680339999999999918e+02,7.338158388004986045e+04
4.661600000000000250e+02,7.317445815300963295e+04
4.642869999999999777e+02,7.254310786573616497e+04
4.624130000000000109e+02,7.198075990526920941e+04
4.605380000000000109e+02,7.127489430184617231e+04
4.586630000000000109e+02,7.106838760691304924e+04
4.567880000000000109e+02,7.049225982046980062e+04
4.549119999999999777e+02,6.989213444149316638e+04
4.530350000000000250e+02,7.037017150025282172e+04
4.511589999999999918e+02,6.926588398869470984e+04
4.492810000000000059e+02,6.886590246432066488e+04
4.474039999999999964e+02,6.851841636962885968e+04
4.455249999999999773e+02,6.794665632270893548e+04
4.436469999999999914e+02,6.745885170547127200e+04
4.417679999999999723e+02,6.686012962694963790e+04
4.398879999999999768e+02,6.606629011746222386e+04
4.380079999999999814e+02,6.563904961744439788e+04
4.361279999999999859e+02,6.535670812689617742e+04
4.342470000000000141e+02,6.473222925593926630e+04
4.323659999999999854e+02,6.460404941468019388e+04
4.304839999999999804e+02,6.380387223347958206e+04
4.286019999999999754e+02,6.333005410221578495e+04
4.267189999999999941e+02,6.243645867149918922e+04
4.248360000000000127e+02,6.249122231096909672e+04
4.229519999999999982e+02,6.188540869149645732e+04
4.210679999999999836e+02,6.159307416247080255e+04
4.191829999999999927e+02,6.145572241503432451e+04
4.172980000000000018e+02,6.101452977831610042e+04
4.154130000000000109e+02,6.104141625231618673e+04
4.135269999999999868e+02,6.028442555859693675e+04
4.116410000000000196e+02,6.025331399587800115e+04
4.097540000000000191e+02,5.996614530601449951e+04
4.078670000000000186e+02,5.931595576744406571e+04
4.059789999999999850e+02,5.935692914232535986e+04
4.040910000000000082e+02,5.904052168880320096e+04
4.022019999999999982e+02,5.863359718935057026e+04
4.003129999999999882e+02,5.843679188180878555e+04
3.984230000000000018e+02,5.852018956897580938e+04
3.965330000000000155e+02,5.788166646837870212e+04
3.946429999999999723e+02,5.806844258001746493e+04
3.927520000000000095e+02,5.775786173719105136e+04
3.908600000000000136e+02,5.732734397041126795e+04
3.889689999999999941e+02,5.726278160289876541e+04
3.870760000000000218e+02,5.681848619560623047e+04
3.851829999999999927e+02,5.654275006158922042e+04
3.832900000000000205e+02,5.668977320084768871e+04
3.813960000000000150e+02,5.625939950775791658e+04
3.795020000000000095e+02,5.604578510831172025e+04
3.776080000000000041e+02,5.608383000250905752e+04
3.757119999999999891e+02,5.598958204023891449e+04
3.738170000000000073e+02,5.552980947723604913e+04
3.719209999999999923e+02,5.534810017359232006e+04
3.700240000000000009e+02,5.534537415990010777e+04
3.681270000000000095e+02,5.457906750102015212e+04
3.662300000000000182e+02,5.473792019695247291e+04
3.643319999999999936e+02,5.462965623385059007e+04
3.624340000000000259e+02,5.426239164597206400e+04
3.605350000000000250e+02,5.446761043989224709e+04
3.586360000000000241e+02,5.436452862945760717e+04
3.567359999999999900e+02,5.421477024167618947e+04
3.548360000000000127e+02,5.412145126997249463e+04
3.529350000000000023e+02,5.398863576179795200e+04
3.510339999999999918e+02,5.371125969014453585e+04
3.491320000000000050e+02,5.369342712291772477e+04
3.472300000000000182e+02,5.354607401266615489e+04
3.453279999999999745e+02,5.330636035938985151e+04
3.434250000000000114e+02,5.342685026168882177e+04
3.415210000000000150e+02,5.309246375026849273e+04
3.396170000000000186e+02,5.297807673676392005e+04
3.377130000000000223e+02,5.296388922117510083e+04
3.358079999999999927e+02,5.295164534306948190e+04
3.339030000000000200e+02,5.266608098336597322e+04
3.319970000000000141e+02,5.267668030212918529e+04
3.300910000000000082e+02,5.234589915979166835e+04
3.281840000000000259e+02,5.259492173692589859e+04
3.262769999999999868e+02,5.266032387346729229e+04
3.243690000000000282e+02,5.260608977050696558e+04
3.224610000000000127e+02,5.259729524747248797e+04
3.205520000000000209e+02,5.252178452598435979e+04
3.186429999999999723e+02,5.225053340495144948e+04
3.167339999999999804e+02,5.270162188437378791e+04
3.148240000000000123e+02,5.224241421667943359e+04
3.129130000000000109e+02,5.217773043268674519e+04
3.110020000000000095e+02,5.197366629024036229e+04
3.090910000000000082e+02,5.212422178934029944e+04
3.071789999999999736e+02,5.200574122353263374e+04
3.052669999999999959e+02,5.196322031983298803e+04
3.033539999999999850e+02,5.180348339235983440e+04
3.014399999999999977e+02,5.171325047197994718e+04
2.995269999999999868e+02,5.147485292015658342e+04
2.976120000000000232e+02,5.136454374101103167e+04
2.956979999999999791e+02,5.114932993042201269e+04
2.937819999999999823e+02,5.110202455429265683e+04
2.918670000000000186e+02,5.119901454671986721e+04
2.899510000000000218e+02,5.085832864921004511e+04
2.880339999999999918e+02,5.043468689267836453e+04
2.861170000000000186e+02,5.030686490122441319e+04
2.841990000000000123e+02,5.061462709199028905e+04
2.822810000000000059e+02,5.021328906846013706e+04
2.803629999999999995e+02,5.021381083063395636e+04
2.784440000000000168e+02,4.991377682660656865e+04
2.765240000000000009e+02,5.022518708734155371e+04
2.746039999999999850e+02,4.980363717506520334e+04
2.726840000000000259e+02,4.956072708977754519e+04
2.707629999999999768e+02,4.951304132088499318e+04
2.688419999999999845e+02,4.956613539963965013e+04
2.669200000000000159e+02,4.931811383611716155e+04
2.649970000000000141e+02,4.940349666132946732e+04
2.630749999999999886e+02,4.921297484477714897e+04
2.611510000000000105e+02,4.936512197874338744e+04
2.592269999999999754e+02,4.902214902239682851e+04
2.573029999999999973e+02,4.914713597573747393e+04
2.553789999999999907e+02,4.901128283876530622e+04
2.534530000000000030e+02,4.947333877648854104e+04
2.515279999999999916e+02,4.934835007244714507e+04
2.496009999999999991e+02,4.930981050523800513e+04
2.476750000000000114e+02,4.946280629626421432e+04
2.457479999999999905e+02,4.963116666233890282e+04
2.438199999999999932e+02,4.954361163455467613e+04
2.418919999999999959e+02,4.977947659932827082e+04
2.399629999999999939e+02,4.987128621172127896e+04
2.380339999999999918e+02,5.011497583741667768e+04
2.361049999999999898e+02,5.034178547641439945e+04
2.341750000000000114e+02,5.060045981490636041e+04
2.322439999999999998e+02,5.035931888403360063e+04
2.303129999999999882e+02,5.064291800798457552e+04
2.283820000000000050e+02,5.020447718675923534e+04
2.264499999999999886e+02,5.057390114809777151e+04
2.245180000000000007e+02,5.092944518503682775e+04
2.225850000000000080e+02,5.083877404610416852e+04
2.206510000000000105e+02,5.093964776248914131e+04
2.187179999999999893e+02,5.105547682672915835e+04
2.167829999999999870e+02,5.093855554681846115e+04
2.148480000000000132e+02,5.094605440490327601e+04
2.129130000000000109e+02,5.099781340098363580e+04
2.109770000000000039e+02,5.085957734601986886e+04
2.090409999999999968e+02,5.113028144987147243e+04
2.071040000000000134e+02,5.112885054432941251e+04
2.051670000000000016e+02,5.105907981843329617e+04
2.032290000000000134e+02,5.093199412481548643e+04
2.012909999999999968e+02,5.112334863168500306e+04
1.993520000000000039e+02,5.125362821252628783e+04
1.974130000000000109e+02,5.099870801470699371e+04
1.954730000000000132e+02,5.093609293257445097e+04
1.935329999999999870e+02,5.110215809264421841e+04
1.915929999999999893e+02,5.105824349491631438e+04
1.896510000000000105e+02,5.123837899070620188e+04
1.877100000000000080e+02,5.114110983435111120e+04
1.857680000000000007e+02,5.156872588761677616e+04
1.838249999999999886e+02,5.143668718183783494e+04
1.818820000000000050e+02,5.165036878091437393e+04
1.799379999999999882e+02,5.162687566274736309e+04
1.779939999999999998e+02,5.188232287034171168e+04
1.760500000000000114e+02,5.219473040369743831e+04
1.741049999999999898e+02,5.236500327208780800e+04
1.721589999999999918e+02,5.268948150689585600e+04
1.702129999999999939e+02,5.281352010930934193e+04
1.682659999999999911e+02,5.329772412000609620e+04
1.663189999999999884e+02,5.332726851924645598e+04
1.643720000000000141e+02,5.364205330703043001e+04
1.624240000000000066e+02,5.400380355545654311e+04
1.604749999999999943e+02,5.418795929595624330e+04
1.585260000000000105e+02,5.454987546690816089e+04
1.565769999999999982e+02,5.474057206831229269e+04
1.546270000000000095e+02,5.500827421420268365e+04
1.526759999999999877e+02,5.531136193604303844e+04
1.507249999999999943e+02,5.526119013028725021e+04
1.487740000000000009e+02,5.559083879693531344e+04
1.468220000000000027e+02,5.583157309199980227e+04
1.448700000000000045e+02,5.584536788046007860e+04
1.429170000000000016e+02,5.590130833933143003e+04
1.409629999999999939e+02,5.648689450012602902e+04
1.390089999999999861e+02,5.691976119633256167e+04
1.370550000000000068e+02,5.672852842795109609e+04
1.350999999999999943e+02,5.677512141403996065e+04
1.331440000000000055e+02,5.665464018614354427e+04
1.311879999999999882e+02,5.723135953571832943e+04
1.292319999999999993e+02,5.713779946276427654e+04
1.272750000000000057e+02,5.750150522842586361e+04
1.253179999999999978e+02,5.771795159260436048e+04
1.233599999999999994e+02,5.776512383750072331e+04
1.214009999999999962e+02,5.724870199470774241e+04
1.194419999999999931e+02,5.706700079255546007e+04
1.174830000000000041e+02,5.705028023104383465e+04
1.155229999999999961e+02,5.663678563452442904e+04
1.135630000000000024e+02,5.637961169972371863e+04
1.116020000000000039e+02,5.590400377208202553e+04
1.096400000000000006e+02,5.632198188324055081e+04
1.076779999999999973e+02,5.666030069830604043e+04
1.057159999999999940e+02,5.629580021727849089e+04
1.037530000000000001e+02,5.529132582781343081e+04
1.017900000000000063e+02,5.562763216336560436e+04
9.982569999999999766e+01,5.604640425534558744e+04
9.786119999999999663e+01,5.668807018367148703e+04
9.589629999999999654e+01,5.760428304066571582e+04
9.393080000000000496e+01,5.907171592710702680e+04
9.196490000000000009e+01,6.000209577181169880e+04
8.999840000000000373e+01,6.007091567979496176e+04
8.803149999999999409e+01,6.009404257565171429e+04
8.606399999999999295e+01,6.064256956863579398e+04
8.409610000000000696e+01,6.081260357911852770e+04
8.212760000000000105e+01,5.923105772059454466e+04
8.015860000000000696e+01,5.754350546066526294e+04
7.818909999999999627e+01,5.655358681521584367e+04
7.621909999999999741e+01,5.619752180013550242e+04
7.424869999999999948e+01,5.577680387668291223e+04
7.227760000000000673e+01,5.363519272465881659e+04
7.030610000000000070e+01,4.817020869606103224e+04
6.833410000000000650e+01,3.941861836142936227e+04
6.636159999999999570e+01,2.891498173667315859e+04
6.438859999999999673e+01,1.808645883770580622e+04
6.241499999999999915e+01,9.800676241443812614e+03
6.044100000000000250e+01,4.339382842872157198e+03
5.846640000000000015e+01,8.776717809767837934e+02
