1.838309999999999945e+03,-6.393198845248407451e+02
1.836750000000000000e+03,2.402619279232749250e+01
1.835180000000000064e+03,2.757328198803734267e+02
1.833609999999999900e+03,4.970109563830483239e+02
1.832049999999999955e+03,2.705117779203428654e+02
1.830480000000000018e+03,5.303329873324400978e+02
1.828910000000000082e+03,3.889257061591924867e+02
1.827339999999999918e+03,4.279299344005994499e+02
1.825779999999999973e+03,2.430370636528095929e+02
1.824210000000000036e+03,4.158843648036272498e+02
1.822640000000000100e+03,3.485031753691000631e+02
1.821069999999999936e+03,4.025534953492315253e+02
1.819500000000000000e+03,5.814153247439826373e+02
1.817930000000000064e+03,2.357086635533632943e+02
1.816359999999999900e+03,2.869335117774317041e+02
1.814789999999999964e+03,3.294098694160929881e+02
1.813220000000000027e+03,3.560377364694140851e+02
1.811650000000000091e+03,7.373371129373845179e+02
1.810079999999999927e+03,2.326079988199780928e+02
1.808500000000000000e+03,2.166784076392941643e+02
1.806930000000000064e+03,4.014722582710091956e+02
1.805359999999999900e+03,2.449776183173962636e+02
1.803789999999999964e+03,5.079448777837387752e+01
1.802210000000000036e+03,-9.772933648903563153e+01
1.800640000000000100e+03,3.151904977210651850e+02
1.799069999999999936e+03,2.096818413458386203e+02
1.797490000000000009e+03,2.605923286572506186e+02
1.795920000000000073e+03,-2.779336296886322089e+01
1.794339999999999918e+03,-1.389800194131239550e+02
1.792769999999999982e+03,1.282372537098854082e+02
1.791190000000000055e+03,-4.382654649003234226e+01
1.789619999999999891e+03,6.421369138207228389e+01
1.788039999999999964e+03,-2.914472525735181989e+02
1.786470000000000027e+03,-3.484404995226941537e+01
1.784890000000000100e+03,-3.357021376634947956e+02
1.783309999999999945e+03,-2.506688244648976251e+02
1.781740000000000009e+03,1.129887982399231987e+02
1.780160000000000082e+03,5.324849676828744123e+02
1.778579999999999927e+03,2.311125380356825190e+02
1.777000000000000000e+03,3.677515092983667273e+02
1.775430000000000064e+03,5.348150074212608160e+02
1.773849999999999909e+03,5.351768349282647250e+02
1.772269999999999982e+03,8.256500633451214526e+02
1.770690000000000055e+03,9.110746926718566101e+02
1.769109999999999900e+03,8.485707229084218852e+02
1.767529999999999973e+03,8.077381540548522025e+02
1.765950000000000045e+03,7.752369861111365026e+02
1.764369999999999891e+03,8.515272190772957401e+02
1.762789999999999964e+03,6.836688529532984830e+02
1.761210000000000036e+03,8.905218877391453134e+02
1.759619999999999891e+03,4.823726532382715959e+02
1.758039999999999964e+03,4.743084354192251340e+02
1.756460000000000036e+03,3.888356185100419680e+02
1.754880000000000109e+03,4.803742025107203517e+02
1.753289999999999964e+03,3.345702991817088332e+02
1.751710000000000036e+03,1.523163057747296989e+01
1.750130000000000109e+03,-5.737563711690017954e+01
1.748539999999999964e+03,-2.673455557592824334e+02
1.746960000000000036e+03,-1.334500760585942771e+02
1.745369999999999891e+03,-3.353973564995540073e+02
1.743789999999999964e+03,-4.333791294037509942e+02
1.742200000000000045e+03,-2.592037716433551395e+02
1.740619999999999891e+03,-7.421627971524576424e+02
1.739029999999999973e+03,-7.237048011906590546e+02
1.737450000000000045e+03,-1.011521079304671730e+03
1.735859999999999900e+03,-8.650404451414797222e+02
1.734269999999999982e+03,-1.088248519262138871e+03
1.732690000000000055e+03,-9.586907034957985161e+02
1.731099999999999909e+03,-1.110876139415078796e+03
1.729509999999999991e+03,-1.000050283618184039e+03
1.727920000000000073e+03,-1.094193136105139274e+03
1.726329999999999927e+03,-9.578646968759421725e+02
1.724750000000000000e+03,-6.257500942588085309e+02
1.723160000000000082e+03,-7.708590168282535160e+02
1.721569999999999936e+03,-6.431366476814873749e+02
1.719980000000000018e+03,-5.814829868185915984e+02
1.718390000000000100e+03,-6.708380342395248590e+02
1.716799999999999955e+03,-4.787217899443057831e+02
1.715210000000000036e+03,-5.246142539329448482e+02
1.713609999999999900e+03,-8.606306812607508618e+02
1.712019999999999982e+03,-7.905006165861559566e+02
1.710430000000000064e+03,-5.208992601954087149e+02
1.708839999999999918e+03,-6.188266120884945849e+02
1.707250000000000000e+03,-5.217426722654345213e+02
1.705650000000000091e+03,-5.854829699714318849e+02
1.704059999999999945e+03,-3.132565014851134038e+02
1.702470000000000027e+03,-2.394387412826763466e+02
1.700869999999999891e+03,-7.665383260959060863e+00
1.699279999999999973e+03,6.231490560472593643e+01
1.697690000000000055e+03,2.551864861865469720e+02
1.696089999999999918e+03,6.773499935938161798e+00
1.694500000000000000e+03,1.729876091810001526e+02
1.692900000000000091e+03,-5.086295828901347704e+01
1.691299999999999955e+03,5.725765607452194672e+01
1.689710000000000036e+03,2.609855309298873181e+02
1.688109999999999900e+03,5.892856407404178753e+01
1.686509999999999991e+03,4.018027790516789537e+02
1.684920000000000073e+03,4.422444195173738990e+02
1.683319999999999936e+03,2.923010532756452449e+02
1.681720000000000027e+03,4.697688688674825244e+02
1.680119999999999891e+03,5.714078662928222911e+02
1.678529999999999973e+03,4.942545093158551026e+02
1.676930000000000064e+03,7.510359255218354519e+02
1.675329999999999927e+03,3.620285235613264376e+02
1.673730000000000018e+03,5.340323034343309700e+02
1.672130000000000109e+03,5.768872651409037644e+02
1.670529999999999973e+03,5.388534086809959263e+02
1.668930000000000064e+03,3.433307340546307387e+02
1.667329999999999927e+03,7.601592412618047092e+02
1.665730000000000018e+03,7.442789303024910623e+02
1.664130000000000109e+03,7.861898011767043499e+02
1.662519999999999982e+03,7.527348389849066734e+02
1.660920000000000073e+03,8.087280184126575477e+02
1.659319999999999936e+03,7.133323796739568934e+02
1.657720000000000027e+03,6.099279227687802631e+02
1.656109999999999900e+03,4.147374119989544852e+02
1.654509999999999991e+03,3.092752636473160237e+02
1.652910000000000082e+03,2.864842971291946014e+02
1.651299999999999955e+03,-2.612888938660034910e+00
1.649700000000000045e+03,-4.398154690324736293e+01
1.648089999999999918e+03,1.812234650109021459e+02
1.646490000000000009e+03,1.301971155998471659e+02
1.644880000000000109e+03,3.409843254959559999e+02
1.643279999999999973e+03,3.654028463845315855e+01
1.641670000000000073e+03,1.448496925165527500e+02
1.640059999999999945e+03,2.429301716566696996e+02
1.638460000000000036e+03,1.736395660726557253e+02
1.636849999999999909e+03,-1.221977568052679999e+02
1.635240000000000009e+03,-3.196040084211563226e+02
1.633630000000000109e+03,-5.321391887750796741e+02
1.632029999999999973e+03,-1.481452323655685177e+02
1.630420000000000073e+03,-1.246582147375156637e+02
1.628809999999999945e+03,-2.279601258474431233e+02
1.627200000000000045e+03,-1.901509656954003731e+02
1.625589999999999918e+03,-1.940107342813425930e+02
1.623980000000000018e+03,-1.813394316053017974e+02
1.622369999999999891e+03,-4.403570576672645984e+02
1.620759999999999991e+03,-5.241836124672408914e+02
1.619150000000000091e+03,-7.696590960052126320e+02
1.617539999999999964e+03,-7.124635082812019391e+02
1.615930000000000064e+03,-7.923968492951826192e+02
1.614309999999999945e+03,-6.239377945866144728e+02
1.612700000000000045e+03,-7.438290485346224159e+02
1.611089999999999918e+03,-6.317292312206409406e+02
1.609480000000000018e+03,-9.303783426446461817e+02
1.607859999999999900e+03,-9.823352805225586053e+02
1.606250000000000000e+03,-8.692423048805940198e+02
1.604640000000000100e+03,-9.182582579766167328e+02
1.603019999999999982e+03,-1.260342204245025641e+03
1.601410000000000082e+03,-1.191196070275080274e+03
1.599789999999999964e+03,-1.246678040737941046e+03
1.598180000000000064e+03,-9.596298197020078078e+02
1.596559999999999945e+03,-5.679298143593332497e+02
1.594940000000000055e+03,-6.874788490151695441e+02
1.593329999999999927e+03,-1.226917525109223789e+03
1.591710000000000036e+03,-1.053704583959493903e+03
1.590089999999999918e+03,-9.662006828082521679e+02
1.588480000000000018e+03,-1.116866256032357342e+03
1.586859999999999900e+03,-1.069520379075547680e+03
1.585240000000000009e+03,-9.131035421172418864e+02
1.583619999999999891e+03,-9.315557451573840808e+02
1.582000000000000000e+03,-8.876169881960086059e+02
1.580380000000000109e+03,-9.270672712331142975e+02
1.578759999999999991e+03,-8.605465942686569178e+02
1.577150000000000091e+03,-6.420750014068034943e+02
1.575519999999999982e+03,-4.732923603351373458e+02
1.573900000000000091e+03,-6.602188033660931978e+02
1.572279999999999973e+03,-7.763542863955080975e+02
1.570660000000000082e+03,-4.868988094234082382e+02
1.569039999999999964e+03,-6.902923724497231888e+02
1.567420000000000073e+03,-2.754549754745385144e+02
1.565799999999999955e+03,-4.904866184977872763e+02
1.564170000000000073e+03,-5.286277041795838159e+02
1.562549999999999955e+03,-4.320174830022297101e+02
1.560930000000000064e+03,-2.429963018233684124e+02
1.559299999999999955e+03,-1.071247310548205860e+02
1.557680000000000064e+03,3.376383143246494001e+02
1.556059999999999945e+03,4.817923197056661593e+02
1.554430000000000064e+03,3.946365469245356508e+02
1.552809999999999945e+03,6.155241650613606907e+01
1.551180000000000064e+03,5.361839597622747533e+01
1.549549999999999955e+03,-1.037047765015449841e+02
1.547930000000000064e+03,1.563438614797487389e+02
1.546299999999999955e+03,-2.857755874676513486e+01
1.544680000000000064e+03,1.828729434351407690e+02
1.543049999999999955e+03,1.363132754598482279e+02
1.541420000000000073e+03,1.748644555366918212e+02
1.539789999999999964e+03,-2.031351633429585490e+01
1.538170000000000073e+03,2.665806584463716717e+02
1.536539999999999964e+03,3.555244388266146416e+02
1.534910000000000082e+03,6.571390672589914175e+02
1.533279999999999973e+03,5.747645437435276108e+02
1.531650000000000091e+03,6.581008682802348631e+02
1.530019999999999982e+03,6.055080408691137563e+02
1.528390000000000100e+03,5.879460615100979339e+02
1.526759999999999991e+03,5.584349302032787818e+02
1.525130000000000109e+03,6.843946469485963462e+02
1.523500000000000000e+03,6.098452117460983573e+02
1.521859999999999900e+03,6.832647645270335488e+02
1.520230000000000018e+03,7.117569692818797193e+02
1.518599999999999909e+03,7.074800220889301272e+02
1.516970000000000027e+03,7.638139229481021175e+02
1.515329999999999927e+03,8.023165868586074794e+02
1.513700000000000045e+03,7.775521276751533151e+02
1.512069999999999936e+03,7.999385165438870899e+02
1.510430000000000064e+03,6.447734996787185082e+02
1.508799999999999955e+03,6.011615285048465012e+02
1.507160000000000082e+03,9.956980389587552054e+02
1.505529999999999973e+03,8.621677077422646107e+02
1.503890000000000100e+03,5.366057455152913462e+02
1.502259999999999991e+03,5.181770542561862385e+02
1.500619999999999891e+03,3.655166193482873496e+02
1.498980000000000018e+03,1.347069198542594677e+02
1.497349999999999909e+03,4.243306604577664984e+02
1.495710000000000036e+03,2.715424882828519912e+02
1.494069999999999936e+03,2.363650515217450447e+02
1.492430000000000064e+03,1.655383501745091053e+02
1.490789999999999964e+03,2.207823842411598889e+02
1.489160000000000082e+03,3.151801405177684501e+02
1.487519999999999982e+03,1.352257019035023404e+02
1.485880000000000109e+03,6.820199870307988022e+01
1.484240000000000009e+03,2.238090309165127110e+02
1.482599999999999909e+03,-9.131320145619974937e+01
1.480960000000000036e+03,1.822353015849366784e+02
1.479319999999999936e+03,-1.015854599600424990e+02
1.477670000000000073e+03,-1.624388683269644389e+02
1.476029999999999973e+03,-2.063382155356230214e+02
1.474390000000000100e+03,-2.313468273304315517e+02
1.472750000000000000e+03,-1.595047037113981787e+02
1.471109999999999900e+03,-2.398518446784437401e+02
1.469460000000000036e+03,-2.505719152688252507e+02
1.467819999999999936e+03,-6.518176418995863060e+02
1.466180000000000064e+03,-4.998726331164943986e+02
1.464529999999999973e+03,-6.720007237752724905e+02
1.462890000000000100e+03,-8.660343006558541674e+02
1.461240000000000009e+03,-7.886810903055011295e+02
1.459599999999999909e+03,-7.194332528497325256e+02
1.457950000000000045e+03,-8.091987414902687306e+02
1.456309999999999945e+03,-8.823894896981801139e+02
1.454660000000000082e+03,-4.770136773295962485e+02
1.453009999999999991e+03,-6.514272428743861383e+02
1.451369999999999891e+03,-3.183658978234598180e+02
1.449720000000000027e+03,-5.537381623591354582e+02
1.448069999999999936e+03,-3.611198048081569141e+02
1.446420000000000073e+03,-2.207308251705690054e+02
1.444769999999999982e+03,-3.533512234463269124e+02
1.443119999999999891e+03,-3.206609996354382019e+02
1.441480000000000018e+03,-2.526555245582567295e+02
1.439829999999999927e+03,-1.020639997382386355e+02
1.438180000000000064e+03,-1.202618528316379525e+02
1.436529999999999973e+03,-1.129890838383289520e+02
1.434880000000000109e+03,2.633430724155914504e+01
1.433220000000000027e+03,1.083407049285597168e+00
1.431569999999999936e+03,-1.845320145333389519e+02
1.429920000000000073e+03,3.543185970658669248e+00
1.428269999999999982e+03,1.598900856128602754e+01
1.426619999999999891e+03,-5.807454676140332595e+01
1.424960000000000036e+03,2.208473221200256376e+02
1.423309999999999945e+03,1.788849541347299237e+02
1.421660000000000082e+03,3.144332082360924687e+02
1.420000000000000000e+03,4.495467156896338565e+02
1.418349999999999909e+03,2.978761571284412639e+02
1.416700000000000045e+03,2.974162206538894679e+02
1.415039999999999964e+03,3.176813666795205791e+02
1.413380000000000109e+03,3.515770207756577292e+02
1.411730000000000018e+03,4.296688368893228471e+02
1.410069999999999936e+03,3.198655643067759229e+02
1.408420000000000073e+03,3.620185677578992909e+02
1.406759999999999991e+03,1.792363684966694564e+02
1.405099999999999909e+03,3.019446773059025872e+02
1.403450000000000045e+03,2.105094333452580031e+02
1.401789999999999964e+03,3.880588154758297605e+02
1.400130000000000109e+03,3.656387056768871844e+02
1.398470000000000027e+03,4.590091039484395878e+02
1.396809999999999945e+03,3.739300102904962841e+02
1.395150000000000091e+03,3.898614247030636761e+02
1.393490000000000009e+03,6.760033471861461294e+02
1.391829999999999927e+03,7.919357777397162863e+02
1.390170000000000073e+03,6.686987163637822960e+02
1.388509999999999991e+03,6.250121630583889782e+02
1.386849999999999909e+03,6.244161178234498948e+02
1.385190000000000055e+03,6.106105806590421707e+02
1.383529999999999973e+03,7.980755515651253518e+02
1.381859999999999900e+03,7.161843480382522102e+02
1.380200000000000045e+03,5.706902779050215031e+02
1.378539999999999964e+03,6.366667158423224464e+02
1.376880000000000109e+03,5.126336618501009070e+02
1.375210000000000036e+03,3.627042043592809932e+02
1.373549999999999955e+03,6.931721093277956243e+02
1.371880000000000109e+03,3.354634960925832274e+02
1.370220000000000027e+03,1.963523600218395586e+02
1.368549999999999955e+03,3.884645910422914312e+02
1.366890000000000100e+03,3.899544139322097180e+02
1.365220000000000027e+03,2.890274892083252780e+02
1.363559999999999945e+03,1.444382710589488852e+02
1.361890000000000100e+03,1.765721905907339533e+02
1.360220000000000027e+03,4.012165034879435552e+02
1.358549999999999955e+03,2.944712097506271675e+02
1.356890000000000100e+03,6.676385234235203825e+01
1.355220000000000027e+03,1.460194028606783831e+02
1.353549999999999955e+03,1.368253467444519629e+02
1.351880000000000109e+03,5.186168399363668868e+01
1.350210000000000036e+03,3.408841460831899894e+01
1.348539999999999964e+03,-1.436144614115910372e+02
1.346869999999999891e+03,2.859730559339659521e+02
1.345200000000000045e+03,1.388909666449617362e+02
1.343529999999999973e+03,1.481192707214067923e+02
1.341859999999999900e+03,1.573579681633054861e+02
1.340190000000000055e+03,1.525270589706415194e+02
1.338519999999999982e+03,-3.829345685658336151e+01
1.336849999999999909e+03,5.477642068165732780e+01
1.335170000000000073e+03,-4.871159920015634270e+01
1.333500000000000000e+03,-3.066099245580699062e+01
1.331829999999999927e+03,-7.359999234596762108e+01
1.330150000000000091e+03,-3.379370625749361352e+02
1.328480000000000018e+03,-3.403753332589840284e+02
1.326799999999999955e+03,-5.850917896757746348e+02
1.325130000000000109e+03,-7.131493311536905821e+02
1.323450000000000045e+03,-5.666051737583402428e+02
1.321779999999999973e+03,-4.462619860301128938e+02
1.320099999999999909e+03,-4.612572148225808633e+02
1.318430000000000064e+03,-1.983932978882439784e+02
1.316750000000000000e+03,-1.143279128685389878e+02
1.315069999999999936e+03,-1.620522498773934785e+02
1.313400000000000091e+03,-9.373726789621287026e+01
1.311720000000000027e+03,-1.676809910929005127e+02
1.310039999999999964e+03,-1.479944363181057270e+02
1.308359999999999900e+03,-1.461576035718389903e+02
1.306680000000000064e+03,-1.976104928541244590e+02
1.305000000000000000e+03,-2.454531041649170220e+02
1.303319999999999936e+03,-3.644254375042364700e+02
1.301640000000000100e+03,-5.674928720909520052e-01
1.299960000000000036e+03,-1.887927026848046808e+01
1.298279999999999973e+03,-2.769607696933962870e+02
1.296599999999999909e+03,6.558800885317759821e+01
1.294920000000000073e+03,-1.507129346288056695e+02
1.293240000000000009e+03,3.379639986070833402e+01
1.291559999999999945e+03,-9.408398767832113663e+01
1.289869999999999891e+03,-1.319439484334652661e+02
1.288190000000000055e+03,-4.222383789876766969e+01
1.286509999999999991e+03,-1.723134493925899733e+02
1.284819999999999936e+03,-2.112628080546637648e+02
1.283140000000000100e+03,-2.684919214747715159e+02
1.281450000000000045e+03,-2.714408981460001087e+02
1.279769999999999982e+03,-4.698951349238632247e+01
1.278079999999999927e+03,5.688189182721544057e+01
1.276400000000000091e+03,-5.754622544543963159e+01
1.274710000000000036e+03,1.486556186499365140e+01
1.273029999999999973e+03,2.993779426660694298e+02
1.271339999999999918e+03,4.155901119673217181e+02
1.269650000000000091e+03,4.979724431571594323e+02
1.267960000000000036e+03,6.319249362355767516e+02
1.266279999999999973e+03,5.938182553148944862e+02
1.264589999999999918e+03,5.760911303841348854e+02
1.262900000000000091e+03,6.024741673419412109e+02
1.261210000000000036e+03,6.022473661883414024e+02
1.259519999999999982e+03,5.091107269233252737e+02
1.257829999999999927e+03,5.202042495468776906e+02
1.256140000000000100e+03,6.700479340590027277e+02
1.254450000000000045e+03,6.971217804597108625e+02
1.252759999999999991e+03,5.260857887489983113e+02
1.251069999999999936e+03,6.043399589268519776e+02
1.249380000000000109e+03,9.090042909932817565e+02
1.247680000000000064e+03,9.155674804855516413e+02
1.245990000000000009e+03,9.704120781154488213e+02
1.244299999999999955e+03,9.995868376339421957e+02
1.242609999999999900e+03,1.215391759041012847e+03
1.240910000000000082e+03,1.391435304674720101e+03
1.239220000000000027e+03,1.463660491645270668e+03
1.237519999999999982e+03,1.608624186070635915e+03
1.235829999999999927e+03,1.594649638604663778e+03
1.234130000000000109e+03,1.920073481821695168e+03
1.232440000000000055e+03,1.719399199919200328e+03
1.230740000000000009e+03,1.914123191927901644e+03
1.229049999999999955e+03,1.875689175588886428e+03
1.227349999999999909e+03,1.945073316389243701e+03
1.225650000000000091e+03,1.962887502306381066e+03
1.223960000000000036e+03,2.182583855205724831e+03
1.222259999999999991e+03,2.164158189914516697e+03
1.220559999999999945e+03,2.552962569740069739e+03
1.218859999999999900e+03,2.566596994682397053e+03
1.217160000000000082e+03,2.655861464741472446e+03
1.215460000000000036e+03,2.742795979917311342e+03
1.213759999999999991e+03,2.862020540209923638e+03
1.212059999999999945e+03,3.222115145619296527e+03
1.210359999999999900e+03,3.238919796145433793e+03
1.208660000000000082e+03,3.328054491788316227e+03
1.206960000000000036e+03,3.637599232547981956e+03
1.205259999999999991e+03,3.633234018424416718e+03
1.203559999999999945e+03,3.698178849417607125e+03
1.201859999999999900e+03,3.972273725527542410e+03
1.200150000000000091e+03,4.156885705074862926e+03
1.198450000000000045e+03,4.233200612860222463e+03
1.196750000000000000e+03,4.237585565762325132e+03
1.195039999999999964e+03,4.387727446082950337e+03
1.193339999999999918e+03,4.525352430660444952e+03
1.191630000000000109e+03,4.739934225195720501e+03
1.189930000000000064e+03,5.224939241448606481e+03
1.188220000000000027e+03,5.149080950198534993e+03
1.186519999999999982e+03,5.296165998126823979e+03
1.184809999999999945e+03,5.615687621091405163e+03
1.183099999999999909e+03,5.934479171712031530e+03
1.181400000000000091e+03,5.914394237874315877e+03
1.179690000000000055e+03,6.049985702709593170e+03
1.177980000000000018e+03,6.432147095200911281e+03
1.176269999999999982e+03,6.712238415348256240e+03
1.174569999999999936e+03,6.676513486303185346e+03
1.172859999999999900e+03,6.927784720665164059e+03
1.171150000000000091e+03,7.292465882683194650e+03
1.169440000000000055e+03,7.237636972357264312e+03
1.167730000000000018e+03,7.477877989687345689e+03
1.166019999999999982e+03,7.795768934673469630e+03
1.164309999999999945e+03,7.940849807315615180e+03
1.162599999999999909e+03,8.170000607613794273e+03
1.160880000000000109e+03,8.450987041195665370e+03
1.159170000000000073e+03,8.573077637903305003e+03
1.157460000000000036e+03,8.795878162266984873e+03
1.155750000000000000e+03,9.272588614286687516e+03
1.154029999999999973e+03,9.308574463635239226e+03
1.152319999999999936e+03,9.631804712064425985e+03
1.150609999999999900e+03,9.833844888149615144e+03
1.148890000000000100e+03,9.846680284511407081e+03
1.147180000000000064e+03,1.002238025700607250e+04
1.145460000000000036e+03,1.028301533162767009e+04
1.143750000000000000e+03,1.063523510053180507e+04
1.142029999999999973e+03,1.083592985341323219e+04
1.140319999999999936e+03,1.103084941872682975e+04
1.138599999999999909e+03,1.141900384986805875e+04
1.136880000000000109e+03,1.151054809051568009e+04
1.135160000000000082e+03,1.181374214066965942e+04
1.133450000000000045e+03,1.234572123989959073e+04
1.131730000000000018e+03,1.237623496831340162e+04
1.130009999999999991e+03,1.273437850623359554e+04
1.128289999999999964e+03,1.299609185366014572e+04
1.126569999999999936e+03,1.317367501059308415e+04
1.124849999999999909e+03,1.337646797703240736e+04
1.123130000000000109e+03,1.359695075297808216e+04
1.121410000000000082e+03,1.372842333843016968e+04
1.119690000000000055e+03,1.396212573338860966e+04
1.117970000000000027e+03,1.409757793785344256e+04
1.116250000000000000e+03,1.448125995182464976e+04
1.114529999999999973e+03,1.494495177530225192e+04
1.112799999999999955e+03,1.512793745775199932e+04
1.111079999999999927e+03,1.545810884099526447e+04
1.109359999999999900e+03,1.562043003374493128e+04
1.107630000000000109e+03,1.592764490738113091e+04
1.105910000000000082e+03,1.599498565989649069e+04
1.104190000000000055e+03,1.645669622191823146e+04
1.102460000000000036e+03,1.668588028674085945e+04
1.100740000000000009e+03,1.671339040852831386e+04
1.099009999999999991e+03,1.711515391427808936e+04
1.097279999999999973e+03,1.745854711069566110e+04
1.095559999999999945e+03,1.740742654250813939e+04
1.093829999999999927e+03,1.750159917985284119e+04
1.092099999999999909e+03,1.781316150786535582e+04
1.090380000000000109e+03,1.787089024970282480e+04
1.088650000000000091e+03,1.838949201864247152e+04
1.086920000000000073e+03,1.866572347824992175e+04
1.085190000000000055e+03,1.905550462852518103e+04
1.083460000000000036e+03,1.930921546946826129e+04
1.081730000000000018e+03,1.951977600107909529e+04
1.080000000000000000e+03,2.001206622335779684e+04
1.078269999999999982e+03,2.013112613630426495e+04
1.076539999999999964e+03,2.035181573991855112e+04
1.074809999999999945e+03,2.075409503420063993e+04
1.073079999999999927e+03,2.074846401915054594e+04
1.071349999999999909e+03,2.104948269476825953e+04
1.069609999999999900e+03,2.120827362279840600e+04
1.067880000000000109e+03,2.155123162016021524e+04
1.066150000000000091e+03,2.198317930818982131e+04
1.064420000000000073e+03,2.229295668688722799e+04
1.062680000000000064e+03,2.260568607928658457e+04
1.060950000000000045e+03,2.309946277972810640e+04
1.059210000000000036e+03,2.333929137434405129e+04
1.057480000000000018e+03,2.348084739652967983e+04
1.055740000000000009e+03,2.384695519336222787e+04
1.054009999999999991e+03,2.403619053729195002e+04
1.052269999999999982e+03,2.441877753634111286e+04
1.050529999999999973e+03,2.468983410653057945e+04
1.048799999999999955e+03,2.487763840328068181e+04
1.047059999999999945e+03,2.542503417568677833e+04
1.045319999999999936e+03,2.537519951923318877e+04
1.043579999999999927e+03,2.555147443391990237e+04
1.041849999999999909e+03,2.604041731456669368e+04
1.040109999999999900e+03,2.605981143147002149e+04
1.038369999999999891e+03,2.624911511951365537e+04
1.036630000000000109e+03,2.646996837869760930e+04
1.034890000000000100e+03,2.650999120902187860e+04
1.033150000000000091e+03,2.664340361048647901e+04
1.031410000000000082e+03,2.700822558309138549e+04
1.029660000000000082e+03,2.718679831246504182e+04
1.027920000000000073e+03,2.719197936741460580e+04
1.026180000000000064e+03,2.731256999350448314e+04
1.024440000000000055e+03,2.747331019073468633e+04
1.022690000000000055e+03,2.777386090464527661e+04
1.020950000000000045e+03,2.789142018422011461e+04
1.019210000000000036e+03,2.810528903493528196e+04
1.017460000000000036e+03,2.859850822217846144e+04
1.015720000000000027e+03,2.833695615523828019e+04
1.013970000000000027e+03,2.839669430460968579e+04
1.012230000000000018e+03,2.838144132001418620e+04
1.010480000000000018e+03,2.847869843151385430e+04
1.008740000000000009e+03,2.832462452926296100e+04
1.006990000000000009e+03,2.837234060289088666e+04
1.005240000000000009e+03,2.820630612744270184e+04
1.003500000000000000e+03,2.820238081874084310e+04
1.001750000000000000e+03,2.794030530542090128e+04
1.000000000000000000e+03,2.797471924302486877e+04
9.982519999999999527e+02,2.784006661084414372e+04
9.965030000000000427e+02,2.769613145802057988e+04
9.947540000000000191e+02,2.778774576817359775e+04
9.930040000000000191e+02,2.725733753358533431e+04
9.912540000000000191e+02,2.741367874992102588e+04
9.895030000000000427e+02,2.708961739740328630e+04
9.877519999999999527e+02,2.710038548374993843e+04
9.860009999999999764e+02,2.698298300896094588e+04
9.842490000000000236e+02,2.664735793516110425e+04
9.824969999999999573e+02,2.650966228815923387e+04
9.807440000000000282e+02,2.604058401800678257e+04
9.789919999999999618e+02,2.600724721856589895e+04
9.772380000000000564e+02,2.568773572187581158e+04
9.754840000000000373e+02,2.537009362783018878e+04
9.737300000000000182e+02,2.506746093642900087e+04
9.719759999999999991e+02,2.475755764767224900e+04
9.702210000000000036e+02,2.468693167536395049e+04
9.684650000000000318e+02,2.422502300136828126e+04
9.667100000000000364e+02,2.376955580412939162e+04
9.649539999999999509e+02,2.364204589310919255e+04
9.631970000000000027e+02,2.319049325016151124e+04
9.614400000000000546e+02,2.291956997357631190e+04
9.596829999999999927e+02,2.275865606335366465e+04
9.579249999999999545e+02,2.253185939094272180e+04
9.561670000000000300e+02,2.220395207278656744e+04
9.544080000000000155e+02,2.187968196821973106e+04
9.526490000000000009e+02,2.165478120579300594e+04
9.508899999999999864e+02,2.133080978550638974e+04
9.491299999999999955e+02,2.120003554851389345e+04
9.473700000000000045e+02,2.078947064153997781e+04
9.456090000000000373e+02,2.015658289361020434e+04
9.438479999999999563e+02,2.010346446357059176e+04
9.420869999999999891e+02,1.965099535142114473e+04
9.403250000000000455e+02,1.947862336798616889e+04
9.385629999999999882e+02,1.907232069030604907e+04
9.367999999999999545e+02,1.887899511706287740e+04
9.350370000000000346e+02,1.852583883743236947e+04
9.332740000000000009e+02,1.811613185141448048e+04
9.315099999999999909e+02,1.775092193946947373e+04
9.297450000000000045e+02,1.743440908336849679e+04
9.279809999999999945e+02,1.705939772827429988e+04
9.262160000000000082e+02,1.685230341686818429e+04
9.244500000000000455e+02,1.645362613091099047e+04
9.226839999999999691e+02,1.621317810209849995e+04
9.209180000000000064e+02,1.565323933043071884e+04
9.191509999999999536e+02,1.547517755379607843e+04
9.173840000000000146e+02,1.511242502213636908e+04
9.156169999999999618e+02,1.469046173545160127e+04
9.138490000000000464e+02,1.417993541336698399e+04
9.120810000000000173e+02,1.377405832408065908e+04
9.103120000000000118e+02,1.367933817503429600e+04
9.085430000000000064e+02,1.302114724660266802e+04
9.067730000000000246e+02,1.258571323403705173e+04
9.050030000000000427e+02,1.240530842989574739e+04
9.032329999999999472e+02,1.197903283417878265e+04
9.014619999999999891e+02,1.170381412384313444e+04
8.996910000000000309e+02,1.143916460973449284e+04
8.979189999999999827e+02,1.074203195660565689e+04
8.961470000000000482e+02,1.023546848749962373e+04
8.943750000000000000e+02,1.004311420241639280e+04
8.926019999999999754e+02,9.715556747793845716e+03
8.908289999999999509e+02,9.172168464982998557e+03
8.890549999999999500e+02,9.070276988203760993e+03
8.872809999999999491e+02,8.715954671018269437e+03
8.855069999999999482e+02,8.406341513426479651e+03
8.837319999999999709e+02,8.013245131312745798e+03
8.819569999999999936e+02,7.745717896567846765e+03
8.801810000000000400e+02,7.566787412844350911e+03
8.784049999999999727e+02,7.416406064257957041e+03
8.766280000000000427e+02,7.067441442222530895e+03
8.748519999999999754e+02,6.879018357792745519e+03
8.730739999999999554e+02,6.716399566847052483e+03
8.712970000000000255e+02,6.462722313506987120e+03
8.695180000000000291e+02,6.395689316914402298e+03
8.677400000000000091e+02,6.142557857927451550e+03
8.659610000000000127e+02,6.219323064263771812e+03
8.641810000000000400e+02,5.989804917539564485e+03
8.624020000000000437e+02,5.908728314548912749e+03
8.606209999999999809e+02,5.658135882514652621e+03
8.588410000000000082e+02,5.714864994213923637e+03
8.570599999999999454e+02,5.782290716064395383e+03
8.552780000000000200e+02,5.660853029661564506e+03
8.534969999999999573e+02,5.753036893127100484e+03
8.517140000000000555e+02,5.731904841661475075e+03
8.499320000000000164e+02,5.713294340064210701e+03
8.481490000000000009e+02,5.686380393384039053e+03
8.463650000000000091e+02,5.882982983195797715e+03
8.445810000000000173e+02,6.225514610042555432e+03
8.427970000000000255e+02,6.379915273924314533e+03
8.410119999999999436e+02,6.461752443572215270e+03
8.392269999999999754e+02,6.701278637961346249e+03
8.374410000000000309e+02,7.118821313522188575e+03
8.356549999999999727e+02,7.277533001523610437e+03
8.338690000000000282e+02,7.642473701965624059e+03
8.320819999999999936e+02,7.832990852819093561e+03
8.302949999999999591e+02,8.210337003805630957e+03
8.285069999999999482e+02,8.532739580581648625e+03
8.267190000000000509e+02,8.917371145176279242e+03
8.249310000000000400e+02,9.235611697589505638e+03
8.231420000000000528e+02,9.516048644997550582e+03
8.213529999999999518e+02,9.960654567902893177e+03
8.195629999999999882e+02,1.030567686115349352e+04
8.177730000000000246e+02,1.056872811757317686e+04
8.159819999999999709e+02,1.083761571967482450e+04
8.141910000000000309e+02,1.105583227261045977e+04
8.123999999999999773e+02,1.145877777638005500e+04
8.106079999999999472e+02,1.176701959498528595e+04
8.088160000000000309e+02,1.199559035208247951e+04
8.070230000000000246e+02,1.251951739932441706e+04
8.052300000000000182e+02,1.267015337270948658e+04
8.034370000000000118e+02,1.300609827223764296e+04
8.016430000000000291e+02,1.304679943102975085e+04
7.998479999999999563e+02,1.351443683054697613e+04
7.980539999999999736e+02,1.353917581073416659e+04
7.962590000000000146e+02,1.380295101928382064e+04
7.944629999999999654e+02,1.404856243764679675e+04
7.926670000000000300e+02,1.415544274506489455e+04
7.908709999999999809e+02,1.447551194153813412e+04
7.890739999999999554e+02,1.445935731689223030e+04
7.872770000000000437e+02,1.466939156892501342e+04
7.854790000000000418e+02,1.455316197507889592e+04
7.836810000000000400e+02,1.461688124552816589e+04
7.818819999999999482e+02,1.476715664532497613e+04
7.800839999999999463e+02,1.480531363817161036e+04
7.782839999999999918e+02,1.479131400063409819e+04
7.764840000000000373e+02,1.481878320260465262e+04
7.746839999999999691e+02,1.500536124408326577e+04
7.728840000000000146e+02,1.502390812506994553e+04
7.710829999999999700e+02,1.512409107341867639e+04
7.692809999999999491e+02,1.501757007051828259e+04
7.674790000000000418e+02,1.508617788231108716e+04
7.656770000000000209e+02,1.513123450879708253e+04
7.638750000000000000e+02,1.515409994997626927e+04
7.620710000000000264e+02,1.496658859947464953e+04
7.602680000000000291e+02,1.540183884822657274e+04
7.584640000000000555e+02,1.566950508364052075e+04
7.566599999999999682e+02,1.538814010890526697e+04
7.548550000000000182e+02,1.548709109597580391e+04
7.530499999999999545e+02,1.562341086046557757e+04
7.512440000000000282e+02,1.572344656189121451e+04
7.494379999999999882e+02,1.550811102829761512e+04
7.476309999999999718e+02,1.578593140675609175e+04
7.458250000000000455e+02,1.561643339690312132e+04
7.440170000000000528e+02,1.568695842127942888e+04
7.422100000000000364e+02,1.597596505734427774e+04
7.404009999999999536e+02,1.602407469028176274e+04
7.385929999999999609e+02,1.603150593490779283e+04
7.367839999999999918e+02,1.626811302932481340e+04
7.349740000000000464e+02,1.626263595483901736e+04
7.331639999999999873e+02,1.633206759551138384e+04
7.313540000000000418e+02,1.666302795134187181e+04
7.295430000000000064e+02,1.666782410709595570e+04
7.277319999999999709e+02,1.669580896553528873e+04
7.259210000000000491e+02,1.684608252665987675e+04
7.241090000000000373e+02,1.696321185651724227e+04
7.222960000000000491e+02,1.703929693638253229e+04
7.204840000000000373e+02,1.722398364040924935e+04
7.186699999999999591e+02,1.764031312926959799e+04
7.168569999999999709e+02,1.765170424229137279e+04
7.150430000000000064e+02,1.770621106785076336e+04
7.132279999999999518e+02,1.772847358720228294e+04
7.114130000000000109e+02,1.805326475927862339e+04
7.095979999999999563e+02,1.832916458407981190e+04
7.077820000000000391e+02,1.852296007141341397e+04
7.059660000000000082e+02,1.861482419896452120e+04
7.041490000000000009e+02,1.870176396402649698e+04
7.023319999999999936e+02,1.897249235679175763e+04
7.005140000000000100e+02,1.880245636203256436e+04
6.986970000000000027e+02,1.925020200394557105e+04
6.968780000000000427e+02,1.969813021806070901e+04
6.950589999999999691e+02,1.953226703483004167e+04
6.932400000000000091e+02,1.996239245425353874e+04
6.914210000000000491e+02,2.012250647633123299e+04
6.896000000000000227e+02,1.999970299542242356e+04
6.877799999999999727e+02,2.038886115118579983e+04
6.859589999999999463e+02,2.053353483170464460e+04
6.841380000000000337e+02,2.040005708980099371e+04
6.823160000000000309e+02,2.046025484756236983e+04
6.804940000000000282e+02,2.071222117035260089e+04
6.786710000000000491e+02,2.089336296770361878e+04
6.768479999999999563e+02,2.116139331752796716e+04
6.750240000000000009e+02,2.108441911679508485e+04
6.732010000000000218e+02,2.149486656528653475e+04
6.713759999999999764e+02,2.168133633506194383e+04
6.695510000000000446e+02,2.159917463217888144e+04
6.677259999999999991e+02,2.184748145663735340e+04
6.659009999999999536e+02,2.179937680843734779e+04
6.640739999999999554e+02,2.200273440608466262e+04
6.622480000000000473e+02,2.214605365295627416e+04
6.604210000000000491e+02,2.253048826126124550e+04
6.585940000000000509e+02,2.267505137174843912e+04
6.567659999999999627e+02,2.269186981849587755e+04
6.549379999999999882e+02,2.301199675483551255e+04
6.531090000000000373e+02,2.305179900224851008e+04
6.512799999999999727e+02,2.350738972665683832e+04
6.494500000000000455e+02,2.349633573693785365e+04
6.476200000000000045e+02,2.382245021161041223e+04
6.457899999999999636e+02,2.456585315067449119e+04
6.439589999999999463e+02,2.445279134409322432e+04
6.421280000000000427e+02,2.486239798929281824e+04
6.402960000000000491e+02,2.508405986361883697e+04
6.384640000000000555e+02,2.526311017710815941e+04
6.366319999999999482e+02,2.563824892976080446e+04
6.347989999999999782e+02,2.603346287998737535e+04
6.329650000000000318e+02,2.625263200884601247e+04
6.311309999999999718e+02,2.652494955161218968e+04
6.292970000000000255e+02,2.720245550828589694e+04
6.274619999999999891e+02,2.779579661200474584e+04
6.256269999999999527e+02,2.815754611699289671e+04
6.237920000000000300e+02,2.874522402325034636e+04
6.219560000000000173e+02,2.913745704494876554e+04
6.201190000000000282e+02,2.953148516311532876e+04
6.182820000000000391e+02,3.023592165725406812e+04
6.164450000000000500e+02,3.103882652736501404e+04
6.146069999999999709e+02,3.179546646230546685e+04
6.127690000000000055e+02,3.245053476055922511e+04
6.109299999999999500e+02,3.363431809831782448e+04
6.090910000000000082e+02,3.408784978672392754e+04
6.072519999999999527e+02,3.531884982577756455e+04
6.054120000000000346e+02,3.602296487266298209e+04
6.035720000000000027e+02,3.704434825752324832e+04
6.017309999999999945e+02,3.778608662486306275e+04
5.998899999999999864e+02,3.889381331749816309e+04
5.980480000000000018e+02,3.954771496724682220e+04
5.962060000000000173e+02,4.026704492960430798e+04
5.943630000000000564e+02,4.118468982369556034e+04
5.925199999999999818e+02,4.208212301770230988e+04
5.906770000000000209e+02,4.297944451162458427e+04
5.888329999999999700e+02,4.349648090553864313e+04
5.869890000000000327e+02,4.402090558666799188e+04
5.851440000000000055e+02,4.484030514238181786e+04
5.832989999999999782e+02,4.533497297260376217e+04
5.814529999999999745e+02,4.607519565198909550e+04
5.796069999999999709e+02,4.679988659316857229e+04
5.777609999999999673e+02,4.698030579614218732e+04
5.759139999999999873e+02,4.772457981648553687e+04
5.740660000000000309e+02,4.784608863511208619e+04
5.722179999999999609e+02,4.834526569008415390e+04
5.703700000000000045e+02,4.904391098140165559e+04
5.685209999999999582e+02,4.905533103917432163e+04
5.666720000000000255e+02,4.958343932055779442e+04
5.648229999999999791e+02,4.939065582555206493e+04
5.629729999999999563e+02,4.993096706515620463e+04
5.611219999999999573e+02,5.025199302025267389e+04
5.592709999999999582e+02,5.051288717346992780e+04
5.574199999999999591e+02,5.100216952480797045e+04
5.555679999999999836e+02,5.180262655975864618e+04
5.537160000000000082e+02,5.257001178007473936e+04
5.518630000000000564e+02,5.286623165848589269e+04
5.500099999999999909e+02,5.355109970950026764e+04
5.481570000000000391e+02,5.465157593311785604e+04
5.463029999999999973e+02,5.525406678291631397e+04
5.444479999999999791e+02,5.618499223973676999e+04
5.425940000000000509e+02,5.712947940281713090e+04
5.407380000000000564e+02,5.809656759455196152e+04
5.388819999999999482e+02,5.924258392056198500e+04
5.370259999999999536e+02,6.080266838084720803e+04
5.351699999999999591e+02,6.217138097540762101e+04
5.333129999999999882e+02,6.328694811307558848e+04
5.314550000000000409e+02,6.516350977466121549e+04
5.295969999999999800e+02,6.613661954493557278e+04
5.277390000000000327e+02,6.783805742389865918e+04
5.258799999999999955e+02,6.916334979477916204e+04
5.240199999999999818e+02,7.090459663836647815e+04
5.221609999999999445e+02,7.225734519461382297e+04
5.203010000000000446e+02,7.343876821075755288e+04
5.184400000000000546e+02,7.456996566757684923e+04
5.165789999999999509e+02,7.612987119465353317e+04
5.147169999999999845e+02,7.743967113676418376e+04
5.128550000000000182e+02,7.804265913630800787e+04
5.109929999999999950e+02,7.919905519328496302e+04
5.091299999999999955e+02,7.966028563322672562e+04
5.072669999999999959e+02,8.022866411777050234e+04
5.054030000000000200e+02,8.098683695960996556e+04
5.035389999999999873e+02,8.124881783321342664e+04
5.016739999999999782e+02,8.177947303842964175e+04
4.998090000000000259e+02,8.196327626256496296e+04
4.979429999999999836e+02,8.253733379261638038e+04
4.960769999999999982e+02,8.272219932873510697e+04
4.942110000000000127e+02,8.285121287092115381e+04
4.923439999999999941e+02,8.251696068688521336e+04
4.904769999999999754e+02,8.253371649605792481e+04
4.886089999999999804e+02,8.260932655328433611e+04
4.867409999999999854e+02,8.212778459085385839e+04
4.848720000000000141e+02,8.179581685073906556e+04
4.830029999999999859e+02,8.155273707809492771e+04
4.811329999999999814e+02,8.139383150201471290e+04
4.792629999999999768e+02,8.096421388052575639e+04
4.773929999999999723e+02,8.075000421362808265e+04
4.755219999999999914e+02,7.961586871108735795e+04
4.736499999999999773e+02,7.983570735356902878e+04
4.717789999999999964e+02,7.897870772799357655e+04
4.699060000000000059e+02,7.891460842496817349e+04
4.680339999999999918e+02,7.833875085388564912e+04
4.661600000000000250e+02,7.781697356665316329e+04
4.642869999999999777e+02,7.750297801136350608e+04
4.624130000000000109e+02,7.657837653659621719e+04
4.605380000000000109e+02,7.580824912298576965e+04
4.586630000000000109e+02,7.543904959946651070e+04
4.567880000000000109e+02,7.520961796603848052e+04
4.549119999999999777e+02,7.411118036147420935e+04
4.530350000000000250e+02,7.433313676638746983e+04
4.511589999999999918e+02,7.355019490970220068e+04
4.492810000000000059e+02,7.280577316894292017e+04
4.474039999999999964e+02,7.240049316658507450e+04
4.455249999999999773e+02,7.171423324134986615e+04
4.436469999999999914e+02,7.119219505451609439e+04
4.417679999999999723e+02,7.038057081248759641e+04
4.398879999999999768e+02,6.978378049584713881e+04
4.380079999999999814e+02,6.913941800462562242e+04
4.361279999999999859e+02,6.885542333882303501e+04
4.342470000000000141e+02,6.794928256602931651e+04
4.323659999999999854e+02,6.764000960569939343e+04
4.304839999999999804e+02,6.665577051246119663e+04
4.286019999999999754e+02,6.640257921872474253e+04
4.267189999999999941e+02,6.526864176614913595e+04
4.248360000000000127e+02,6.531835210010637820e+04
4.229519999999999982e+02,6.477117624927972793e+04
4.210679999999999836e+02,6.407034817201015539e+04
4.191829999999999927e+02,6.397907388399822230e+04
4.172980000000000018e+02,6.352712735656068253e+04
4.154130000000000109e+02,6.345170858969751862e+04
4.135269999999999868e+02,6.280852357962669339e+04
4.116410000000000196e+02,6.259028631714066432e+04
4.097540000000000191e+02,6.226356278546091926e+04
4.078670000000000186e+02,6.167446698836953146e+04
4.059789999999999850e+02,6.168596489608460979e+04
4.040910000000000082e+02,6.103805052538469317e+04
4.022019999999999982e+02,6.058248983347763715e+04
4.003129999999999882e+02,6.063451685014538089e+04
3.984230000000000018e+02,6.070013751957859495e+04
3.965330000000000155e+02,6.016646588456945028e+04
3.946429999999999723e+02,6.021842194511797425e+04
3.927520000000000095e+02,5.980189162588054023e+04
3.908600000000000136e+02,5.935415490731597674e+04
3.889689999999999941e+02,5.922799994663205871e+04
3.870760000000000218e+02,5.887660447869499330e+04
3.851829999999999927e+02,5.864241666722286027e+04
3.832900000000000205e+02,5.858957651221564447e+04
3.813960000000000150e+02,5.816900989921291330e+04
3.795020000000000095e+02,5.786875092963044153e+04
3.776080000000000041e+02,5.793947960346819309e+04
3.757119999999999891e+02,5.790418765265062393e+04
3.738170000000000073e+02,5.758983745971368626e+04
3.719209999999999923e+02,5.731052075004744984e+04
3.700240000000000009e+02,5.735779750405906088e+04
3.681270000000000095e+02,5.663856186231548782e+04
3.662300000000000182e+02,5.651631382481676701e+04
3.643319999999999936e+02,5.634281921832388616e+04
3.624340000000000259e+02,5.620497220300359913e+04
3.605350000000000250e+02,5.622289859253774921e+04
3.586360000000000241e+02,5.621979256016539148e+04
3.567359999999999900e+02,5.596773990648232575e+04
3.548360000000000127e+02,5.599371481780671456e+04
3.529350000000000023e+02,5.612732308164147253e+04
3.510339999999999918e+02,5.570095889739075210e+04
3.491320000000000050e+02,5.551180803945771913e+04
3.472300000000000182e+02,5.538762472033938684e+04
3.453279999999999745e+02,5.540732894003582624e+04
3.434250000000000114e+02,5.536670645329178660e+04
3.415210000000000150e+02,5.500011724044212315e+04
3.396170000000000186e+02,5.497305554018692055e+04
3.377130000000000223e+02,5.487094135252617707e+04
3.358079999999999927e+02,5.459122040596723673e+04
3.339030000000000200e+02,5.454680695888230548e+04
3.319970000000000141e+02,5.474486672665132210e+04
3.300910000000000082e+02,5.430683398076700541e+04
3.281840000000000259e+02,5.440609442347504228e+04
3.262769999999999868e+02,5.448200233939549798e+04
3.243690000000000282e+02,5.436580341763292381e+04
3.224610000000000127e+02,5.439019195594160556e+04
3.205520000000000209e+02,5.427049363027814979e+04
3.186429999999999723e+02,5.408882275153791852e+04
3.167339999999999804e+02,5.455455931972092367e+04
3.148240000000000123e+02,5.423558899105308228e+04
3.129130000000000109e+02,5.396493174579687184e+04
3.110020000000000095e+02,5.397026192114717560e+04
3.090910000000000082e+02,5.402921951710402209e+04
3.071789999999999736e+02,5.376341016355935426e+04
3.052669999999999959e+02,5.373200821745254507e+04
3.033539999999999850e+02,5.349813929549993918e+04
3.014399999999999977e+02,5.342278337793305400e+04
2.995269999999999868e+02,5.317242923791544308e+04
2.976120000000000232e+02,5.316337368603859068e+04
2.956979999999999791e+02,5.273931991171104892e+04
2.937819999999999823e+02,5.288240468595617858e+04
2.918670000000000186e+02,5.279051123775059386e+04
2.899510000000000218e+02,5.247613072798393114e+04
2.880339999999999918e+02,5.220712313685660047e+04
2.861170000000000186e+02,5.198988288722031575e+04
2.841990000000000123e+02,5.215193552981023095e+04
2.822810000000000059e+02,5.172273550068114127e+04
2.803629999999999995e+02,5.195676279983309360e+04
2.784440000000000168e+02,5.151070295817754231e+04
2.765240000000000009e+02,5.172135595588396245e+04
2.746039999999999850e+02,5.137719625543068105e+04
2.726840000000000259e+02,5.133556385681768734e+04
2.707629999999999768e+02,5.101132426449855120e+04
2.688419999999999845e+02,5.109189196078899840e+04
2.669200000000000159e+02,5.081033243690501695e+04
2.649970000000000141e+02,5.088586567298508453e+04
2.630749999999999886e+02,5.070624069322462310e+04
2.611510000000000105e+02,5.084345393152780889e+04
2.592269999999999754e+02,5.027499441870718874e+04
2.573029999999999973e+02,5.051336215476274083e+04
2.553789999999999907e+02,5.041939713969448349e+04
2.534530000000000030e+02,5.089409026316103700e+04
2.515279999999999916e+02,5.059192517078707169e+04
2.496009999999999991e+02,5.052389817715250683e+04
2.476750000000000114e+02,5.077431296767742606e+04
2.457479999999999905e+02,5.098526039884210331e+04
2.438199999999999932e+02,5.086852045073334739e+04
2.418919999999999959e+02,5.105918769842643087e+04
2.399629999999999939e+02,5.101128754028134426e+04
2.380339999999999918e+02,5.125087456465230207e+04
2.361049999999999898e+02,5.134708877153927460e+04
2.341750000000000114e+02,5.153813553936497192e+04
2.322439999999999998e+02,5.133107484818513331e+04
2.303129999999999882e+02,5.153636131292904611e+04
2.283820000000000050e+02,5.144229493359672051e+04
2.264499999999999886e+02,5.152616106200130162e+04
2.245180000000000007e+02,5.196191433302316000e+04
2.225850000000000080e+02,5.191454008516207978e+04
2.206510000000000105e+02,5.174467829844286462e+04
2.187179999999999893e+02,5.181479830253121327e+04
2.167829999999999870e+02,5.172421607295540889e+04
2.148480000000000132e+02,5.174508094603612699e+04
2.129130000000000109e+02,5.186415292177333322e+04
2.109770000000000039e+02,5.178537729868201131e+04
2.090409999999999968e+02,5.194034876491313480e+04
2.071040000000000134e+02,5.175561260564075201e+04
2.051670000000000016e+02,5.165712352234993887e+04
2.032290000000000134e+02,5.196260678686686151e+04
2.012909999999999968e+02,5.201283711401753681e+04
1.993520000000000039e+02,5.208475976227345382e+04
1.974130000000000109e+02,5.186116945980842866e+04
1.954730000000000132e+02,5.171563145173234807e+04
1.935329999999999870e+02,5.190598047957372910e+04
1.915929999999999893e+02,5.168247654333257378e+04
1.896510000000000105e+02,5.189837009312324517e+04
1.877100000000000080e+02,5.199542543372145883e+04
1.857680000000000007e+02,5.222249300854877220e+04
1.838249999999999886e+02,5.226831279753694253e+04
1.818820000000000050e+02,5.232521958231646568e+04
1.799379999999999882e+02,5.244901855448545393e+04
1.779939999999999998e+02,5.260882450905664155e+04
1.760500000000000114e+02,5.283231744603004336e+04
1.741049999999999898e+02,5.311180253691142570e+04
1.721589999999999918e+02,5.329997976160158578e+04
1.702129999999999939e+02,5.356874394189499435e+04
1.682659999999999911e+02,5.387008022918441566e+04
1.663189999999999884e+02,5.399436345866729243e+04
1.643720000000000141e+02,5.416349363034360431e+04
1.624240000000000066e+02,5.481853587548279029e+04
1.604749999999999943e+02,5.488873017395464558e+04
1.585260000000000105e+02,5.526549138777963526e+04
1.565769999999999982e+02,5.542073951695776486e+04
1.546270000000000095e+02,5.576749966590099211e+04
1.526759999999999877e+02,5.576579181445838185e+04
1.507249999999999943e+02,5.602041085150105937e+04
1.487740000000000009e+02,5.639737677702905785e+04
1.468220000000000027e+02,5.634437466856918036e+04
1.448700000000000045e+02,5.639769943515033083e+04
1.429170000000000016e+02,5.638989614084822824e+04
1.409629999999999939e+02,5.726698476548098552e+04
1.390089999999999861e+02,5.736012023824557400e+04
1.370550000000000068e+02,5.710836255914201320e+04
1.350999999999999943e+02,5.718341676531959820e+04
1.331440000000000055e+02,5.704602283657576481e+04
1.311879999999999882e+02,5.770553572902704764e+04
1.292319999999999993e+02,5.758907544267342746e+04
1.272750000000000057e+02,5.774610698771022726e+04
1.253179999999999978e+02,5.800014534046343761e+04
1.233599999999999994e+02,5.810655549764280295e+04
1.214009999999999962e+02,5.749093743901473499e+04
1.194419999999999931e+02,5.730090616112498537e+04
1.174830000000000041e+02,5.762516166397354391e+04
1.155229999999999961e+02,5.670744891727487266e+04
1.135630000000000024e+02,5.641608293781513930e+04
1.116020000000000039e+02,5.606072868180253863e+04
1.096400000000000006e+02,5.656946612897248997e+04
1.076779999999999973e+02,5.661365031636198546e+04
1.057159999999999940e+02,5.618626124397101376e+04
1.037530000000000001e+02,5.536658384097111411e+04
1.017900000000000063e+02,5.549315316467070079e+04
9.982569999999999766e+01,5.610602760540710733e+04
9.786119999999999663e+01,5.667201773703172512e+04
9.589629999999999654e+01,5.724515253590577049e+04
9.393080000000000496e+01,5.877226097297466913e+04
9.196490000000000009e+01,5.934161405833894241e+04
8.999840000000000373e+01,5.950258076023068861e+04
8.803149999999999409e+01,5.966761209145407338e+04
8.606399999999999295e+01,6.016805701752656751e+04
8.409610000000000696e+01,6.006508655395731330e+04
8.212760000000000105e+01,5.875294966354782082e+04
8.015860000000000696e+01,5.687954184930319025e+04
7.818909999999999627e+01,5.585508310104982957e+04
7.621909999999999741e+01,5.539847340861152043e+04
7.424869999999999948e+01,5.503446827905558894e+04
7.227760000000000673e+01,5.279248115046239400e+04
7.030610000000000070e+01,4.781569856438624993e+04
6.833410000000000650e+01,3.980608499339454283e+04
6.636159999999999570e+01,2.983234042729813882e+04
6.438859999999999673e+01,1.934024485590536278e+04
6.241499999999999915e+01,1.119204274769964832e+04
6.044100000000000250e+01,5.628803134448711717e+03
5.846640000000000015e+01,2.039570962628215511e+03
