1.838309999999999945e+03,-8.274586840683623450e+02
1.836750000000000000e+03,-4.282609029573795851e+02
1.835180000000000064e+03,-6.067475131814717315e+00
1.833609999999999900e+03,8.828044223666074686e+01
1.832049999999999955e+03,-2.358181678535329411e+02
1.830480000000000018e+03,1.156187636990653118e+02
1.828910000000000082e+03,-1.615498152054642560e+02
1.827339999999999918e+03,5.575609543288010173e+01
1.825779999999999973e+03,-1.255243812171684112e+02
1.824210000000000036e+03,-2.758094563946797280e+02
1.822640000000000100e+03,-3.100042029327596538e+00
1.821069999999999936e+03,3.230238618789153406e+02
1.819500000000000000e+03,1.374822553299745778e+02
1.817930000000000064e+03,2.457951383238978451e+02
1.816359999999999900e+03,3.080425108606723370e+02
1.814789999999999964e+03,2.253243729403475299e+02
1.813220000000000027e+03,9.682072456284367945e+01
1.811650000000000091e+03,3.550715657282125903e+02
1.810079999999999927e+03,-3.731231035635719309e+02
1.808500000000000000e+03,-1.023627925642358605e+02
1.806930000000000064e+03,-7.844851786874642130e+01
1.805359999999999900e+03,1.838002463696029736e+02
1.803789999999999964e+03,-1.329964998491777806e+02
1.802210000000000036e+03,-1.241984063942509238e+02
1.800640000000000100e+03,-2.730462086258048657e+02
1.799069999999999936e+03,-2.917952131445053965e+01
1.797490000000000009e+03,8.121900151687441394e+00
1.795920000000000073e+03,-3.212024685497308383e+02
1.794339999999999918e+03,-4.326521735167771112e+02
1.792769999999999982e+03,-1.262675982309156097e+02
1.791190000000000055e+03,-1.425684296311810613e+02
1.789619999999999891e+03,1.128050896419445053e+02
1.788039999999999964e+03,-2.313668681915150955e+02
1.786470000000000027e+03,-2.295844049311126582e+02
1.784890000000000100e+03,-5.161274891977809602e+02
1.783309999999999945e+03,-5.965615434202481993e+01
1.781740000000000009e+03,-4.090292649969342165e+00
1.780160000000000082e+03,3.584699157725699479e+02
1.778579999999999927e+03,1.016645433175290236e+02
1.777000000000000000e+03,2.175135899848392000e+02
1.775430000000000064e+03,7.578573045529483352e+02
1.773849999999999909e+03,9.066952247871231521e+02
1.772269999999999982e+03,8.993275641436484875e+02
1.770690000000000055e+03,1.054934322622561012e+03
1.769109999999999900e+03,1.109395500223894487e+03
1.767529999999999973e+03,9.778110969476110768e+02
1.765950000000000045e+03,1.021581112793690409e+03
1.764369999999999891e+03,9.986255477622180479e+02
1.762789999999999964e+03,7.878444018531154143e+02
1.761210000000000036e+03,8.561376750664203428e+02
1.759619999999999891e+03,7.016447654036164749e+02
1.758039999999999964e+03,4.595468415396899218e+02
1.756460000000000036e+03,6.570433367981604533e+02
1.754880000000000109e+03,6.094342511790018762e+02
1.753289999999999964e+03,2.408588411722012097e+02
1.751710000000000036e+03,6.537855847582977731e+01
1.750130000000000109e+03,-9.927305098128272220e+00
1.748539999999999964e+03,2.476804007506434573e+02
1.746960000000000036e+03,-1.218566599005425815e+02
1.745369999999999891e+03,-4.788602219965832774e+02
1.743789999999999964e+03,-5.906284797249682015e+02
1.742200000000000045e+03,-5.149033097658102633e+02
1.740619999999999891e+03,-8.076027645714202663e+02
1.739029999999999973e+03,-8.807288625570654403e+02
1.737450000000000045e+03,-1.094879514439919149e+03
1.735859999999999900e+03,-1.060496880370337749e+03
1.734269999999999982e+03,-1.380359898045964655e+03
1.732690000000000055e+03,-1.120867363205645233e+03
1.731099999999999909e+03,-1.465301648826047312e+03
1.729509999999999991e+03,-1.244401586191655952e+03
1.727920000000000073e+03,-1.487627175302433898e+03
1.726329999999999927e+03,-1.087098416158391046e+03
1.724750000000000000e+03,-1.205553926994121866e+03
1.723160000000000082e+03,-9.119964357948774705e+02
1.721569999999999936e+03,-8.512845963408180978e+02
1.719980000000000018e+03,-8.026384086319449125e+02
1.718390000000000100e+03,-9.247378726682509296e+02
1.716799999999999955e+03,-7.657429884497250896e+02
1.715210000000000036e+03,-7.192137559763941681e+02
1.713609999999999900e+03,-1.113771805832613609e+03
1.712019999999999982e+03,-1.127373912395210937e+03
1.710430000000000064e+03,-8.256816707030084217e+02
1.708839999999999918e+03,-4.044350807559385430e+02
1.707250000000000000e+03,-5.138541425540897762e+02
1.705650000000000091e+03,-5.610806646332202945e+02
1.704059999999999945e+03,-4.903710654672904639e+02
1.702470000000000027e+03,-3.307118046548566781e+00
1.700869999999999891e+03,1.675492622330057202e+02
1.699279999999999973e+03,1.176187061778909992e+01
1.697690000000000055e+03,1.213088272574241273e+02
1.696089999999999918e+03,1.973081098955881316e+02
1.694500000000000000e+03,2.498237274992716266e+02
1.692900000000000091e+03,2.049159978682291694e+01
1.691299999999999955e+03,2.006337490144796902e+02
1.689710000000000036e+03,6.653123402914934559e+02
1.688109999999999900e+03,5.214230791685549775e+02
1.686509999999999991e+03,7.323080949856957886e+02
1.684920000000000073e+03,6.068496599360369146e+02
1.683319999999999936e+03,3.779432654025877127e+02
1.681720000000000027e+03,9.462311478092451580e+02
1.680119999999999891e+03,1.291413307156049996e+03
1.678529999999999973e+03,1.558352158488953137e+03
1.676930000000000064e+03,1.584922907485117321e+03
1.675329999999999927e+03,1.052807933421427151e+03
1.673730000000000018e+03,9.122472362978442106e+02
1.672130000000000109e+03,1.437980816114373738e+03
1.670529999999999973e+03,8.074486728710617172e+02
1.668930000000000064e+03,7.929508065678965067e+02
1.667329999999999927e+03,1.149607217204815242e+03
1.665730000000000018e+03,1.066417904781861580e+03
1.664130000000000109e+03,9.752428692990361014e+02
1.662519999999999982e+03,1.163339338019155548e+03
1.660920000000000073e+03,9.598128206474502804e+02
1.659319999999999936e+03,1.142700580215896480e+03
1.657720000000000027e+03,7.454826167244464159e+02
1.656109999999999900e+03,7.347960141358780675e+02
1.654509999999999991e+03,5.681865687555691693e+02
1.652910000000000082e+03,5.888314003153791418e+02
1.651299999999999955e+03,5.237274852471309714e+02
1.649700000000000045e+03,5.463008349180745427e+02
1.648089999999999918e+03,2.771453661991399713e+02
1.646490000000000009e+03,1.987872339812311111e+02
1.644880000000000109e+03,4.393602116115944227e+02
1.643279999999999973e+03,3.553105975048092660e+02
1.641670000000000073e+03,3.489320214845211012e+02
1.640059999999999945e+03,5.354076506425481057e+02
1.638460000000000036e+03,4.276807958178978879e+02
1.636849999999999909e+03,1.376848713252547896e+02
1.635240000000000009e+03,-1.264968479890958406e+02
1.633630000000000109e+03,-1.733043621250690194e+02
1.632029999999999973e+03,-1.406542164965940174e+02
1.630420000000000073e+03,1.156667157167103142e+02
1.628809999999999945e+03,5.114185310837638099e+01
1.627200000000000045e+03,-1.736488043216959340e+02
1.625589999999999918e+03,1.012747434266057098e+02
1.623980000000000018e+03,2.092724963532091351e+02
1.622369999999999891e+03,-3.436355455418670317e+02
1.620759999999999991e+03,-4.677493822586111492e+02
1.619150000000000091e+03,-7.835890137970709475e+02
1.617539999999999964e+03,-6.789344401571725029e+02
1.615930000000000064e+03,-4.434456613389775157e+02
1.614309999999999945e+03,-6.247465278480958659e+02
1.612700000000000045e+03,-8.319493746659136377e+02
1.611089999999999918e+03,-7.747180163054290460e+02
1.609480000000000018e+03,-1.015952452766621718e+03
1.607859999999999900e+03,-1.154876678749409621e+03
1.606250000000000000e+03,-1.315022740846630768e+03
1.604640000000000100e+03,-1.539394597765538492e+03
1.603019999999999982e+03,-1.279716352407645900e+03
1.601410000000000082e+03,-1.292259834962620516e+03
1.599789999999999964e+03,-1.503593287449664786e+03
1.598180000000000064e+03,-1.115888395640664385e+03
1.596559999999999945e+03,-8.091735459726914996e+02
1.594940000000000055e+03,-7.975445633353228914e+02
1.593329999999999927e+03,-1.209857127976705669e+03
1.591710000000000036e+03,-1.246639843184297206e+03
1.590089999999999918e+03,-1.156688425422500586e+03
1.588480000000000018e+03,-1.138538446514285170e+03
1.586859999999999900e+03,-1.382398726597413770e+03
1.585240000000000009e+03,-1.209284873711163527e+03
1.583619999999999891e+03,-1.025836887855519308e+03
1.582000000000000000e+03,-1.219294769030457246e+03
1.580380000000000109e+03,-9.835985172359942226e+02
1.578759999999999991e+03,-1.216748132472144789e+03
1.577150000000000091e+03,-8.921389332717517391e+02
1.575519999999999982e+03,-4.586449640362116043e+02
1.573900000000000091e+03,-8.004721803641587030e+02
1.572279999999999973e+03,-8.482452637226815568e+02
1.570660000000000082e+03,-6.124642141118383734e+02
1.569039999999999964e+03,-7.028490315315430053e+02
1.567420000000000073e+03,-4.409397159818909131e+02
1.565799999999999955e+03,-4.692362674628093373e+02
1.564170000000000073e+03,-4.973236573949252488e+02
1.562549999999999955e+03,-5.197719791532726958e+02
1.560930000000000064e+03,-2.780861679422669113e+02
1.559299999999999955e+03,-8.729130405465548392e+01
1.557680000000000064e+03,1.633827368789643515e+02
1.556059999999999945e+03,8.493709107819595374e+02
1.554430000000000064e+03,6.223680284892325290e+02
1.552809999999999945e+03,-1.008555678851698758e+02
1.551180000000000064e+03,2.372497068886441411e+02
1.549549999999999955e+03,8.766904197580879554e+01
1.547930000000000064e+03,1.554477720771101303e+02
1.546299999999999955e+03,2.528152642308414215e+02
1.544680000000000064e+03,1.131622240546857938e+02
1.543049999999999955e+03,4.119978732749441406e+02
1.541420000000000073e+03,4.811675828085571993e+02
1.539789999999999964e+03,4.184713526555424323e+02
1.538170000000000073e+03,8.200747357082873350e+02
1.536539999999999964e+03,9.318266626217955491e+02
1.534910000000000082e+03,1.006592649848666042e+03
1.533279999999999973e+03,9.898326973889488727e+02
1.531650000000000091e+03,1.061686805242541595e+03
1.530019999999999982e+03,9.967949734095309395e+02
1.528390000000000100e+03,1.139797201889887219e+03
1.526759999999999991e+03,8.950934906836046139e+02
1.525130000000000109e+03,1.006043839790698257e+03
1.523500000000000000e+03,1.200488249211164657e+03
1.521859999999999900e+03,1.128800801654637326e+03
1.520230000000000018e+03,1.123413295262027532e+03
1.518599999999999909e+03,1.189439849182803300e+03
1.516970000000000027e+03,8.833804634169209749e+02
1.515329999999999927e+03,1.055549074691341957e+03
1.513700000000000045e+03,1.119457773112386349e+03
1.512069999999999936e+03,1.178480531846857048e+03
1.510430000000000064e+03,9.966911780786031159e+02
1.508799999999999955e+03,8.123420210000040242e+02
1.507160000000000082e+03,1.254020678315588157e+03
1.505529999999999973e+03,8.298196054238796933e+02
1.503890000000000100e+03,8.165462738232308766e+02
1.502259999999999991e+03,7.331532851185183972e+02
1.500619999999999891e+03,6.332879646016663173e+02
1.498980000000000018e+03,3.352566312950366409e+02
1.497349999999999909e+03,6.044457506508333609e+02
1.495710000000000036e+03,2.499424284279957647e+02
1.494069999999999936e+03,6.888330934153782437e+02
1.492430000000000064e+03,5.952177456129866187e+02
1.490789999999999964e+03,4.695963850208208896e+02
1.489160000000000082e+03,3.165956601842481177e+02
1.487519999999999982e+03,3.802223106758756330e+02
1.485880000000000109e+03,2.452029483777150745e+02
1.484240000000000009e+03,3.774175732897710986e+02
1.482599999999999909e+03,8.460661854120553471e+02
1.480960000000000036e+03,3.615887847445555963e+02
1.479319999999999936e+03,-3.188546287127246615e+02
1.477670000000000073e+03,1.659490398513444234e+02
1.476029999999999973e+03,-3.906435848839464597e+00
1.474390000000000100e+03,-9.436792433881782927e+01
1.472750000000000000e+03,-1.955954256185650593e+02
1.471109999999999900e+03,-2.233889396880840650e+02
1.469460000000000036e+03,-2.916555552765639732e+02
1.467819999999999936e+03,-8.457211315890017431e+02
1.466180000000000064e+03,-6.415127206912147813e+02
1.464529999999999973e+03,-6.085575215260178084e+02
1.462890000000000100e+03,-1.001861172871140298e+03
1.461240000000000009e+03,-8.858181094991014106e+02
1.459599999999999909e+03,-1.123253823087128694e+03
1.457950000000000045e+03,-1.108642895508251968e+03
1.456309999999999945e+03,-1.015030671339220135e+03
1.454660000000000082e+03,-5.903918795535428217e+02
1.453009999999999991e+03,-6.976191741078946507e+02
1.451369999999999891e+03,-4.082450616348651238e+02
1.449720000000000027e+03,-5.739444919823727105e+02
1.448069999999999936e+03,-4.749700086699594976e+02
1.446420000000000073e+03,-2.846616116975637851e+02
1.444769999999999982e+03,-3.755793010652123485e+02
1.443119999999999891e+03,-1.319630767728958745e+02
1.441480000000000018e+03,-9.085224355323589407e+00
1.439829999999999927e+03,7.313886414380976930e+01
1.438180000000000064e+03,-4.884313369708252139e+01
1.436529999999999973e+03,-1.720112178780545946e+02
1.434880000000000109e+03,1.241634611600966309e+03
1.433220000000000027e+03,4.232864558401051909e+02
1.431569999999999936e+03,-6.075992424786090851e+01
1.429920000000000073e+03,1.220760932411940303e+01
1.428269999999999982e+03,1.754569056556050782e+03
1.426619999999999891e+03,-3.233555825520306826e+02
1.424960000000000036e+03,8.638560844188032206e+01
1.423309999999999945e+03,-1.627512402332213242e+02
1.421660000000000082e+03,7.174582475164788775e+01
1.420000000000000000e+03,2.345086089542746777e+02
1.418349999999999909e+03,7.353464372150483541e+00
1.416700000000000045e+03,-6.978776655002729967e+01
1.415039999999999964e+03,8.939661086125124712e+01
1.413380000000000109e+03,-1.341851720648846822e+02
1.411730000000000018e+03,1.050152642190078041e+02
1.410069999999999936e+03,8.174119772850826848e+01
1.408420000000000073e+03,1.056494244454079308e+02
1.406759999999999991e+03,3.356307439053489361e+01
1.405099999999999909e+03,-6.766943600174272433e+01
1.403450000000000045e+03,2.320404579212045064e+02
1.401789999999999964e+03,3.850756639645405812e+02
1.400130000000000109e+03,3.411847096704732394e+02
1.398470000000000027e+03,3.615475950389954960e+02
1.396809999999999945e+03,5.272043200700863963e+02
1.395150000000000091e+03,5.991148847637377912e+02
1.393490000000000009e+03,7.207192891200247686e+02
1.391829999999999927e+03,5.495175331388600171e+02
1.390170000000000073e+03,8.319696168202935951e+02
1.388509999999999991e+03,8.617155401642958168e+02
1.386849999999999909e+03,6.085353031708946219e+02
1.385190000000000055e+03,7.485489058400562499e+02
1.383529999999999973e+03,8.827563481718243565e+02
1.381859999999999900e+03,5.811285830774431815e+02
1.380200000000000045e+03,6.014036676238902146e+02
1.378539999999999964e+03,7.338925918329478009e+02
1.376880000000000109e+03,5.834953557045373600e+02
1.375210000000000036e+03,1.840027634846192086e+02
1.373549999999999955e+03,3.931931695709499763e+02
1.371880000000000109e+03,8.050814512121723965e+01
1.370220000000000027e+03,-9.503380657777597662e+01
1.368549999999999955e+03,4.276887367427261779e+02
1.366890000000000100e+03,2.704744272584357532e+02
1.365220000000000027e+03,3.688045383491262328e+02
1.363559999999999945e+03,2.455787107955256943e+01
1.361890000000000100e+03,8.215554994044941850e+01
1.360220000000000027e+03,1.283869940194417723e+02
1.358549999999999955e+03,2.235322033165430184e+02
1.356890000000000100e+03,-1.247792166341241682e+02
1.355220000000000027e+03,9.659356043318985030e+01
1.353549999999999955e+03,6.916010271856794134e+01
1.351880000000000109e+03,-2.381958977795147803e+01
1.350210000000000036e+03,-1.649255170563847059e+02
1.348539999999999964e+03,-3.940376791166927433e+02
1.346869999999999891e+03,7.314392404105456080e+01
1.345200000000000045e+03,1.171792924169130856e+02
1.343529999999999973e+03,-1.850715739891456906e+02
1.341859999999999900e+03,-2.573086751771043055e+02
1.340190000000000055e+03,4.438798885303549469e+01
1.338519999999999982e+03,-1.636015818987216335e+02
1.336849999999999909e+03,-1.567973874324088683e+02
1.335170000000000073e+03,-2.315695186244847719e+02
1.333500000000000000e+03,-3.675378310559754027e+02
1.331829999999999927e+03,-4.711523782694130205e+02
1.330150000000000091e+03,-5.319433633668522816e+02
1.328480000000000018e+03,-7.097904174780996982e+02
1.326799999999999955e+03,-9.045339843649999239e+02
1.325130000000000109e+03,-1.115013545374094974e+03
1.323450000000000045e+03,-8.644896940504113445e+02
1.321779999999999973e+03,-9.243817619573383126e+02
1.320099999999999909e+03,-8.603904924230882898e+02
1.318430000000000064e+03,-4.384950672278646380e+02
1.316750000000000000e+03,-7.741763794830767438e+02
1.315069999999999936e+03,-5.324840014117799001e+02
1.313400000000000091e+03,-4.113273552303144243e+02
1.311720000000000027e+03,-3.843275589484546799e+02
1.310039999999999964e+03,-5.995340723401313880e+02
1.308359999999999900e+03,-5.495068954052985646e+02
1.306680000000000064e+03,-7.925060281439800747e+02
1.305000000000000000e+03,-5.214714705561782466e+02
1.303319999999999936e+03,-7.824832226418657228e+02
1.301640000000000100e+03,-4.171212844011024572e+02
1.299960000000000036e+03,-4.938056558338284958e+02
1.298279999999999973e+03,-5.760763369400519878e+02
1.296599999999999909e+03,-5.883533277197857387e+02
1.294920000000000073e+03,-3.868166281730518676e+02
1.293240000000000009e+03,-2.739062382998090470e+02
1.291559999999999945e+03,-3.741421581000904553e+02
1.289869999999999891e+03,-4.510954911636945326e+02
1.288190000000000055e+03,-3.916040678685676539e+02
1.286509999999999991e+03,-2.736589542469591834e+02
1.284819999999999936e+03,-5.916313667849462945e+02
1.283140000000000100e+03,-2.948589100679528201e+02
1.281450000000000045e+03,-4.597440548493032111e+02
1.279769999999999982e+03,-2.025242550368711818e+02
1.278079999999999927e+03,-2.631421320615190780e+02
1.276400000000000091e+03,-5.189349891537131043e+02
1.274710000000000036e+03,-3.382855984216730576e+02
1.273029999999999973e+03,-1.481111241846519988e+01
1.271339999999999918e+03,1.233255460702494020e+02
1.269650000000000091e+03,2.095558195467310725e+02
1.267960000000000036e+03,2.139797080109710805e+02
1.266279999999999973e+03,2.356688426473992877e+02
1.264589999999999918e+03,3.088199988683481934e+02
1.262900000000000091e+03,3.539247700770356460e+02
1.261210000000000036e+03,9.826315627351868898e+01
1.259519999999999982e+03,1.635751574577880092e+02
1.257829999999999927e+03,2.569607736298203235e+02
1.256140000000000100e+03,5.018600047895888565e+02
1.254450000000000045e+03,2.391128509371628752e+02
1.252759999999999991e+03,6.967931207250512671e+01
1.251069999999999936e+03,1.915593881956301630e+02
1.249380000000000109e+03,4.360530793064972386e+02
1.247680000000000064e+03,3.034283386282331776e+02
1.245990000000000009e+03,4.864292219335475238e+02
1.244299999999999955e+03,5.807637202266050735e+02
1.242609999999999900e+03,6.723918335074413335e+02
1.240910000000000082e+03,7.236213636510365177e+02
1.239220000000000027e+03,7.987566691262763925e+02
1.237519999999999982e+03,1.116173315678446670e+03
1.235829999999999927e+03,8.779358133480855031e+02
1.234130000000000109e+03,8.450795763088244712e+02
1.232440000000000055e+03,7.456892661728634266e+02
1.230740000000000009e+03,9.344401455421757419e+02
1.229049999999999955e+03,6.555770276006514905e+02
1.227349999999999909e+03,9.356350233785342425e+02
1.225650000000000091e+03,8.296865583583276020e+02
1.223960000000000036e+03,9.023042098178557353e+02
1.222259999999999991e+03,8.974428612062474713e+02
1.220559999999999945e+03,1.311635051796605694e+03
1.218859999999999900e+03,1.498960781588888494e+03
1.217160000000000082e+03,1.380800050583085977e+03
1.215460000000000036e+03,1.536332858779234812e+03
1.213759999999999991e+03,1.598319206177329761e+03
1.212059999999999945e+03,1.827639092777375481e+03
1.210359999999999900e+03,1.847832518579365569e+03
1.208660000000000082e+03,1.902719483583277906e+03
1.206960000000000036e+03,2.183359987789153820e+03
1.205259999999999991e+03,1.904134031196954311e+03
1.203559999999999945e+03,1.853321613806678215e+03
1.201859999999999900e+03,2.014902735618365114e+03
1.200150000000000091e+03,2.347984287288520136e+03
1.198450000000000045e+03,2.131372449499380309e+03
1.196750000000000000e+03,2.346574150912187179e+03
1.195039999999999964e+03,2.496916167945848429e+03
1.193339999999999918e+03,2.621104909757836140e+03
1.191630000000000109e+03,2.832133890957702533e+03
1.189930000000000064e+03,3.226929673168880981e+03
1.188220000000000027e+03,3.065985618535021786e+03
1.186519999999999982e+03,3.312008441145386314e+03
1.184809999999999945e+03,3.371291350677754963e+03
1.183099999999999909e+03,3.606987723179103341e+03
1.181400000000000091e+03,3.815871087385894498e+03
1.179690000000000055e+03,3.561774424053495750e+03
1.177980000000000018e+03,4.026611223690095358e+03
1.176269999999999982e+03,4.305081486295675859e+03
1.174569999999999936e+03,4.296058893296140013e+03
1.172859999999999900e+03,4.326836120067964657e+03
1.171150000000000091e+03,4.862326809808771941e+03
1.169440000000000055e+03,4.520150962518586311e+03
1.167730000000000018e+03,4.794608578197396128e+03
1.166019999999999982e+03,4.941179656845211866e+03
1.164309999999999945e+03,5.287624198461999185e+03
1.162599999999999909e+03,5.432062203047811636e+03
1.160880000000000109e+03,5.672319683350666310e+03
1.159170000000000073e+03,5.710624575646201265e+03
1.157460000000000036e+03,6.060222930910720606e+03
1.155750000000000000e+03,6.475094749144234811e+03
1.154029999999999973e+03,6.150565889958292246e+03
1.152319999999999936e+03,6.778884595901530702e+03
1.150609999999999900e+03,7.016656764813800692e+03
1.148890000000000100e+03,6.962088141398256994e+03
1.147180000000000064e+03,6.937887198020223877e+03
1.145460000000000036e+03,7.136185385634380509e+03
1.143750000000000000e+03,7.476091329966104240e+03
1.142029999999999973e+03,7.773916328609906486e+03
1.140319999999999936e+03,7.720269160651369020e+03
1.138599999999999909e+03,8.053500970324865193e+03
1.136880000000000109e+03,8.328986166287271772e+03
1.135160000000000082e+03,8.694624748538641143e+03
1.133450000000000045e+03,9.215831317771313479e+03
1.131730000000000018e+03,8.892916711052355822e+03
1.130009999999999991e+03,9.102035490622336511e+03
1.128289999999999964e+03,9.465267656481228187e+03
1.126569999999999936e+03,9.725453208629071014e+03
1.124849999999999909e+03,9.827912147065857425e+03
1.123130000000000109e+03,9.987924471791542601e+03
1.121410000000000082e+03,1.005987018280620396e+04
1.119690000000000055e+03,1.040052928010978212e+04
1.117970000000000027e+03,1.030014176370228233e+04
1.116250000000000000e+03,1.062818763358372962e+04
1.114529999999999973e+03,1.106472688975412166e+04
1.112799999999999955e+03,1.122100447009934578e+04
1.111079999999999927e+03,1.128375046039577865e+04
1.109359999999999900e+03,1.144228983698115917e+04
1.107630000000000109e+03,1.191464742216237937e+04
1.105910000000000082e+03,1.225573353287381906e+04
1.104190000000000055e+03,1.218959302987418050e+04
1.102460000000000036e+03,1.236243061989143462e+04
1.100740000000000009e+03,1.269631685101786570e+04
1.099009999999999991e+03,1.282208109803400293e+04
1.097279999999999973e+03,1.312917865421189344e+04
1.095559999999999945e+03,1.310300496730150917e+04
1.093829999999999927e+03,1.327328918047828483e+04
1.092099999999999909e+03,1.335550670281683415e+04
1.090380000000000109e+03,1.330431309786961356e+04
1.088650000000000091e+03,1.419847727720705007e+04
1.086920000000000073e+03,1.413591476570623490e+04
1.085190000000000055e+03,1.426078556336720067e+04
1.083460000000000036e+03,1.441340967018988886e+04
1.081730000000000018e+03,1.465736708617435943e+04
1.080000000000000000e+03,1.513363781132057193e+04
1.078269999999999982e+03,1.543404184562856972e+04
1.076539999999999964e+03,1.522611918909832457e+04
1.074809999999999945e+03,1.550532984172983561e+04
1.073079999999999927e+03,1.557015380352309148e+04
1.071349999999999909e+03,1.573663107447812945e+04
1.069609999999999900e+03,1.606100562693804386e+04
1.067880000000000109e+03,1.620630947754121007e+04
1.066150000000000091e+03,1.651888663730614644e+04
1.064420000000000073e+03,1.661187710623284511e+04
1.062680000000000064e+03,1.701286470173939597e+04
1.060950000000000045e+03,1.738340175031427498e+04
1.059210000000000036e+03,1.752987584789469838e+04
1.057480000000000018e+03,1.776099947611770040e+04
1.055740000000000009e+03,1.782296007577199634e+04
1.054009999999999991e+03,1.780427028364316357e+04
1.052269999999999982e+03,1.832271738537132478e+04
1.050529999999999973e+03,1.827747771868696873e+04
1.048799999999999955e+03,1.855498777669268020e+04
1.047059999999999945e+03,1.907303461208217050e+04
1.045319999999999936e+03,1.893137467905912490e+04
1.043579999999999927e+03,1.890146797762357892e+04
1.041849999999999909e+03,1.914103115625025384e+04
1.040109999999999900e+03,1.969567095688853442e+04
1.038369999999999891e+03,1.948372398911433265e+04
1.036630000000000109e+03,1.992777025292757025e+04
1.034890000000000100e+03,2.003890974832828942e+04
1.033150000000000091e+03,1.978778247531648231e+04
1.031410000000000082e+03,2.023898843389216199e+04
1.029660000000000082e+03,2.061027070328810805e+04
1.027920000000000073e+03,2.050024308613977337e+04
1.026180000000000064e+03,2.034836870057894703e+04
1.024440000000000055e+03,2.081642754660557694e+04
1.022690000000000055e+03,2.079892254763322853e+04
1.020950000000000045e+03,2.097186781793587579e+04
1.019210000000000036e+03,2.116972631982601160e+04
1.017460000000000036e+03,2.153728085979683237e+04
1.015720000000000027e+03,2.168738578596299340e+04
1.013970000000000027e+03,2.179082667218842835e+04
1.012230000000000018e+03,2.182857802263058693e+04
1.010480000000000018e+03,2.154816525511065993e+04
1.008740000000000009e+03,2.171406302982885973e+04
1.006990000000000009e+03,2.170985660856353206e+04
1.005240000000000009e+03,2.174580334086428775e+04
1.003500000000000000e+03,2.165320073254702584e+04
1.001750000000000000e+03,2.141311381110240472e+04
1.000000000000000000e+03,2.147578004322385823e+04
9.982519999999999527e+02,2.160609895352120657e+04
9.965030000000000427e+02,2.128445126681309193e+04
9.947540000000000191e+02,2.146519674149332423e+04
9.930040000000000191e+02,2.127903560352803470e+04
9.912540000000000191e+02,2.139470761912881426e+04
9.895030000000000427e+02,2.113677300643506896e+04
9.877519999999999527e+02,2.116801153948069987e+04
9.860009999999999764e+02,2.114018321826564352e+04
9.842490000000000236e+02,2.098968824918367318e+04
9.824969999999999573e+02,2.083846641800984071e+04
9.807440000000000282e+02,2.078955792330219992e+04
9.789919999999999618e+02,2.045138236402791517e+04
9.772380000000000564e+02,2.057524032410431391e+04
9.754840000000000373e+02,2.052287140641303267e+04
9.737300000000000182e+02,2.004725561095406010e+04
9.719759999999999991e+02,1.984607293772739649e+04
9.702210000000000036e+02,1.985474356176624133e+04
9.684650000000000318e+02,1.969262747130024945e+04
9.667100000000000364e+02,1.901138432019104948e+04
9.649539999999999509e+02,1.906681444672796351e+04
9.631970000000000027e+02,1.900479783913399297e+04
9.614400000000000546e+02,1.854581433022509009e+04
9.596829999999999927e+02,1.866404392000124062e+04
9.579249999999999545e+02,1.846150675600703107e+04
9.561670000000000300e+02,1.837686268283983372e+04
9.544080000000000155e+02,1.817001184018176718e+04
9.526490000000000009e+02,1.805543408048823767e+04
9.508899999999999864e+02,1.769482940375920589e+04
9.491299999999999955e+02,1.748933793787745526e+04
9.473700000000000045e+02,1.728395954709326179e+04
9.456090000000000373e+02,1.666417435141791793e+04
9.438479999999999563e+02,1.674996222296869382e+04
9.420869999999999891e+02,1.627114316174556734e+04
9.403250000000000455e+02,1.632049727594712022e+04
9.385629999999999882e+02,1.614006444949886645e+04
9.367999999999999545e+02,1.568294478271896514e+04
9.350370000000000346e+02,1.561207816740888666e+04
9.332740000000000009e+02,1.516584460356859927e+04
9.315099999999999909e+02,1.490952417969013186e+04
9.297450000000000045e+02,1.487167688394283323e+04
9.279809999999999945e+02,1.466780254329073796e+04
9.262160000000000082e+02,1.434084132288047840e+04
9.244500000000000455e+02,1.412293321087472577e+04
9.226839999999999691e+02,1.389691812667079648e+04
9.209180000000000064e+02,1.339901607026869897e+04
9.191509999999999536e+02,1.336868710253101017e+04
9.173840000000000146e+02,1.291513115469687182e+04
9.156169999999999618e+02,1.297128822676631535e+04
9.138490000000000464e+02,1.217789836774889409e+04
9.120810000000000173e+02,1.205420152073230565e+04
9.103120000000000118e+02,1.192533772681889241e+04
9.085430000000000064e+02,1.157072693699911179e+04
9.067730000000000246e+02,1.106770918446362339e+04
9.050030000000000427e+02,1.084806442811006127e+04
9.032329999999999472e+02,1.052489266793843126e+04
9.014619999999999891e+02,1.044675392526629003e+04
8.996910000000000309e+02,1.015640817085991876e+04
8.979189999999999827e+02,9.513835418116286746e+03
8.961470000000000482e+02,9.352935645717778243e+03
8.943750000000000000e+02,9.159128853664427879e+03
8.926019999999999754e+02,8.591515043466650241e+03
8.908289999999999509e+02,8.190594205688918009e+03
8.890549999999999500e+02,8.125406333912091213e+03
8.872809999999999491e+02,7.718431426625757013e+03
8.855069999999999482e+02,7.674869483829890669e+03
8.837319999999999709e+02,7.271980487205430109e+03
8.819569999999999936e+02,7.185024447137395327e+03
8.801810000000000400e+02,6.926161337368233944e+03
8.784049999999999727e+02,6.813271176217000175e+03
8.766280000000000427e+02,6.602353929483106185e+03
8.748519999999999754e+02,6.362469661597373488e+03
8.730739999999999554e+02,6.126538258040207438e+03
8.712970000000000255e+02,6.072079833331168629e+03
8.695180000000000291e+02,5.954834249108389486e+03
8.677400000000000091e+02,5.893301643733713718e+03
8.659610000000000127e+02,5.773701913039156352e+03
8.641810000000000400e+02,5.665195045093438239e+03
8.624020000000000437e+02,5.516021159972951864e+03
8.606209999999999809e+02,5.334440059659595136e+03
8.588410000000000082e+02,5.345571942171402043e+03
8.570599999999999454e+02,5.497176663556216226e+03
8.552780000000000200e+02,5.361394211869337596e+03
8.534969999999999573e+02,5.315164746989219566e+03
8.517140000000000555e+02,5.397308011174514832e+03
8.499320000000000164e+02,5.483084262166572444e+03
8.481490000000000009e+02,5.263513316184216819e+03
8.463650000000000091e+02,5.558575161269400269e+03
8.445810000000000173e+02,5.717309891303477343e+03
8.427970000000000255e+02,5.685777506286452990e+03
8.410119999999999436e+02,6.043997892395687813e+03
8.392269999999999754e+02,6.044171155475029082e+03
8.374410000000000309e+02,6.305977173718660197e+03
8.356549999999999727e+02,6.468316060949218809e+03
8.338690000000000282e+02,6.662007817166697350e+03
8.320819999999999936e+02,6.818152308584802086e+03
8.302949999999999591e+02,7.156409661002129724e+03
8.285069999999999482e+02,7.572359732640252332e+03
8.267190000000000509e+02,7.767222657285405148e+03
8.249310000000000400e+02,7.884918434937651909e+03
8.231420000000000528e+02,8.418226911824669514e+03
8.213529999999999518e+02,8.756288233722116274e+03
8.195629999999999882e+02,8.912742238856597396e+03
8.177730000000000246e+02,9.137289081000395527e+03
8.159819999999999709e+02,9.426028590374560736e+03
8.141910000000000309e+02,9.702980928752462205e+03
8.123999999999999773e+02,9.859526096134111867e+03
8.106079999999999472e+02,1.018544391072658618e+04
8.088160000000000309e+02,1.058383454631276254e+04
8.070230000000000246e+02,1.094615781308517762e+04
8.052300000000000182e+02,1.121743389283678698e+04
8.034370000000000118e+02,1.164864278556756472e+04
8.016430000000000291e+02,1.169340428944270388e+04
7.998479999999999563e+02,1.191245839243039518e+04
7.980539999999999736e+02,1.199930550221530575e+04
7.962590000000000146e+02,1.215748520308926527e+04
7.944629999999999654e+02,1.251261748301378248e+04
7.926670000000000300e+02,1.275150255184706475e+04
7.908709999999999809e+02,1.292660040958914760e+04
7.890739999999999554e+02,1.301151082630633027e+04
7.872770000000000437e+02,1.299827402389990311e+04
7.854790000000000418e+02,1.303012976439930208e+04
7.836810000000000400e+02,1.305509827773820143e+04
7.818819999999999482e+02,1.320247931790471193e+04
7.800839999999999463e+02,1.313683337290309282e+04
7.782839999999999918e+02,1.349819969263223902e+04
7.764840000000000373e+02,1.350189876911372266e+04
7.746839999999999691e+02,1.370589060234756471e+04
7.728840000000000146e+02,1.350911519233373838e+04
7.710829999999999700e+02,1.368875226891844795e+04
7.692809999999999491e+02,1.360912182002288318e+04
7.674790000000000418e+02,1.366444411177460279e+04
7.656770000000000209e+02,1.375527914417364809e+04
7.638750000000000000e+02,1.376514691721997951e+04
7.620710000000000264e+02,1.386440685031426256e+04
7.602680000000000291e+02,1.400351980226667365e+04
7.584640000000000555e+02,1.441018518844265054e+04
7.566599999999999682e+02,1.440516329914300877e+04
7.548550000000000182e+02,1.431353382793506171e+04
7.530499999999999545e+02,1.459867707318331668e+04
7.512440000000000282e+02,1.446177272038244701e+04
7.494379999999999882e+02,1.434738107596512418e+04
7.476309999999999718e+02,1.462948181734894024e+04
7.458250000000000455e+02,1.457719558566126216e+04
7.440170000000000528e+02,1.457238140103584738e+04
7.422100000000000364e+02,1.493706024333895766e+04
7.404009999999999536e+02,1.476829110845953255e+04
7.385929999999999609e+02,1.509503500050866569e+04
7.367839999999999918e+02,1.504495123795095424e+04
7.349740000000000464e+02,1.503343980865403137e+04
7.331639999999999873e+02,1.525900105540533696e+04
7.313540000000000418e+02,1.552867497820492281e+04
7.295430000000000064e+02,1.554676121403335128e+04
7.277319999999999709e+02,1.597542011781504698e+04
7.259210000000000491e+02,1.573209168954998313e+04
7.241090000000000373e+02,1.594591555407067062e+04
7.222960000000000491e+02,1.606021169922457193e+04
7.204840000000000373e+02,1.625488087940200057e+04
7.186699999999999591e+02,1.640308194478190126e+04
7.168569999999999709e+02,1.654261604518535023e+04
7.150430000000000064e+02,1.635776240190342651e+04
7.132279999999999518e+02,1.669918100277022313e+04
7.114130000000000109e+02,1.683903223916554271e+04
7.095979999999999563e+02,1.702405611108943413e+04
7.077820000000000391e+02,1.718707220687418885e+04
7.059660000000000082e+02,1.740840093007015821e+04
7.041490000000000009e+02,1.755542186088781455e+04
7.023319999999999936e+02,1.752929541099484049e+04
7.005140000000000100e+02,1.744858115247545356e+04
6.986970000000000027e+02,1.774821993709919479e+04
6.968780000000000427e+02,1.833221046892588492e+04
6.950589999999999691e+02,1.812671360378489771e+04
6.932400000000000091e+02,1.830914934167618776e+04
6.914210000000000491e+02,1.839151768259977689e+04
6.896000000000000227e+02,1.840147772192830598e+04
6.877799999999999727e+02,1.871297080439996353e+04
6.859589999999999463e+02,1.892281602131416730e+04
6.841380000000000337e+02,1.862639382498570194e+04
6.823160000000000309e+02,1.859944374681591580e+04
6.804940000000000282e+02,1.899320624725927337e+04
6.786710000000000491e+02,1.892546084956845152e+04
6.768479999999999563e+02,1.939090802234216244e+04
6.750240000000000009e+02,1.938742728067989083e+04
6.732010000000000218e+02,1.960481959030717553e+04
6.713759999999999764e+02,1.973018348428952595e+04
6.695510000000000446e+02,1.980869993242568307e+04
6.677259999999999991e+02,1.981490893471563322e+04
6.659009999999999536e+02,1.989887049115936679e+04
6.640739999999999554e+02,2.026366358299918647e+04
6.622480000000000473e+02,2.008236972612855607e+04
6.604210000000000491e+02,2.040950789770313713e+04
6.585940000000000509e+02,2.084353860710291337e+04
6.567659999999999627e+02,2.078064132861037069e+04
6.549379999999999882e+02,2.087371657977197901e+04
6.531090000000000373e+02,2.091108382669477578e+04
6.512799999999999727e+02,2.129864359509628412e+04
6.494500000000000455e+02,2.141473534290352109e+04
6.476200000000000045e+02,2.174199960400952841e+04
6.457899999999999636e+02,2.232839637841426156e+04
6.439589999999999463e+02,2.244704511176929373e+04
6.421280000000000427e+02,2.267710635023863142e+04
6.402960000000000491e+02,2.276163953128494177e+04
6.384640000000000555e+02,2.311308520925667835e+04
6.366319999999999482e+02,2.338772338415384729e+04
6.347989999999999782e+02,2.377417348115015920e+04
6.329650000000000318e+02,2.379073548795219540e+04
6.311309999999999718e+02,2.429458997528848704e+04
6.292970000000000255e+02,2.476111694315898058e+04
6.274619999999999891e+02,2.560279580033505044e+04
6.256269999999999527e+02,2.552048712984302983e+04
6.237920000000000300e+02,2.603453093168292980e+04
6.219560000000000173e+02,2.668214660231705057e+04
6.201190000000000282e+02,2.726065412943183765e+04
6.182820000000000391e+02,2.768163411246051692e+04
6.164450000000000500e+02,2.828720655140309100e+04
6.146069999999999709e+02,2.912383082629264391e+04
6.127690000000000055e+02,2.951046754888036230e+04
6.109299999999999500e+02,3.045261609097915789e+04
6.090910000000000082e+02,3.112221707255589718e+04
6.072519999999999527e+02,3.202419049361062935e+04
6.054120000000000346e+02,3.279319571362033457e+04
6.035720000000000027e+02,3.365211336488339293e+04
6.017309999999999945e+02,3.427224279864762502e+04
5.998899999999999864e+02,3.515280465543604805e+04
5.980480000000000018e+02,3.571783827826289780e+04
5.962060000000000173e+02,3.633526431588035484e+04
5.943630000000000564e+02,3.729636210306456633e+04
5.925199999999999818e+02,3.799275229680129996e+04
5.906770000000000209e+02,3.880225489709050453e+04
5.888329999999999700e+02,3.912280922634571471e+04
5.869890000000000327e+02,3.964385595391088282e+04
5.851440000000000055e+02,4.032849439395246736e+04
5.832989999999999782e+02,4.105048522405696713e+04
5.814529999999999745e+02,4.147718775013941922e+04
5.796069999999999709e+02,4.230704265803330054e+04
5.777609999999999673e+02,4.208642994773863757e+04
5.759139999999999873e+02,4.282706891278755211e+04
5.740660000000000309e+02,4.308517954079279298e+04
5.722179999999999609e+02,4.356614253409308003e+04
5.703700000000000045e+02,4.386943789268840192e+04
5.685209999999999582e+02,4.408558489358337829e+04
5.666720000000000255e+02,4.445338425150851253e+04
5.648229999999999791e+02,4.448799596646379359e+04
5.629729999999999563e+02,4.471269930305086018e+04
5.611219999999999573e+02,4.513137424886229564e+04
5.592709999999999582e+02,4.538862153516066610e+04
5.574199999999999591e+02,4.561846116194597562e+04
5.555679999999999836e+02,4.659331237726542895e+04
5.537160000000000082e+02,4.683585592479353363e+04
5.518630000000000564e+02,4.713051104429467523e+04
5.500099999999999909e+02,4.781089848772164987e+04
5.481570000000000391e+02,4.845079825507444912e+04
5.463029999999999973e+02,4.901010957368776144e+04
5.444479999999999791e+02,4.971725243112734461e+04
5.425940000000000509e+02,5.075914837687302497e+04
5.407380000000000564e+02,5.147403506804698554e+04
5.388819999999999482e+02,5.223471405827160925e+04
5.370259999999999536e+02,5.339452534754684893e+04
5.351699999999999591e+02,5.438926893587272207e+04
5.333129999999999882e+02,5.535830402154385229e+04
5.314550000000000409e+02,5.693429059210588457e+04
5.295969999999999800e+02,5.745700944511273701e+04
5.277390000000000327e+02,5.880094058056439098e+04
5.258799999999999955e+02,5.965800318013852666e+04
5.240199999999999818e+02,6.111197723136733111e+04
5.221609999999999445e+02,6.204370437505593873e+04
5.203010000000000446e+02,6.268620296208511718e+04
5.184400000000000546e+02,6.348417297998043068e+04
5.165789999999999509e+02,6.425267525537830079e+04
5.147169999999999845e+02,6.511342894500069087e+04
5.128550000000000182e+02,6.580033488380259951e+04
5.109929999999999950e+02,6.650675307178405637e+04
5.091299999999999955e+02,6.672586265317688230e+04
5.072669999999999959e+02,6.677182447542173031e+04
5.054030000000000200e+02,6.721969767441847944e+04
5.035389999999999873e+02,6.740624310593529663e+04
5.016739999999999782e+02,6.770487989753557486e+04
4.998090000000000259e+02,6.763926891331949446e+04
4.979429999999999836e+02,6.813940927250953973e+04
4.960769999999999982e+02,6.811676184754229325e+04
4.942110000000000127e+02,6.808594663841776492e+04
4.923439999999999941e+02,6.789608275184145896e+04
4.904769999999999754e+02,6.782501107276252878e+04
4.886089999999999804e+02,6.756889069953656872e+04
4.867409999999999854e+02,6.743906252545812458e+04
4.848720000000000141e+02,6.712776564052847971e+04
4.830029999999999859e+02,6.690920094639202580e+04
4.811329999999999814e+02,6.687526752469124040e+04
4.792629999999999768e+02,6.645384628542483551e+04
4.773929999999999723e+02,6.642989722859274480e+04
4.755219999999999914e+02,6.514375942329382815e+04
4.736499999999999773e+02,6.550295285697976215e+04
4.717789999999999964e+02,6.464997939564022818e+04
4.699060000000000059e+02,6.464921622146165464e+04
4.680339999999999918e+02,6.429534615225761081e+04
4.661600000000000250e+02,6.421584634509788884e+04
4.642869999999999777e+02,6.346427964291270473e+04
4.624130000000000109e+02,6.268918413785134908e+04
4.605380000000000109e+02,6.219491981734544970e+04
4.586630000000000109e+02,6.185558763741281291e+04
4.567880000000000109e+02,6.131888759805349400e+04
4.549119999999999777e+02,6.096271872229115252e+04
4.530350000000000250e+02,6.102016099754399329e+04
4.511589999999999918e+02,6.033871638196305139e+04
4.492810000000000059e+02,5.992178191944237915e+04
4.474039999999999964e+02,5.952550056608793966e+04
4.455249999999999773e+02,5.911170934061009757e+04
4.436469999999999914e+02,5.845487122429846204e+04
4.417679999999999723e+02,5.792480421702918829e+04
4.398879999999999768e+02,5.730038830620035151e+04
4.380079999999999814e+02,5.670000449397198099e+04
4.361279999999999859e+02,5.693935278034406656e+04
4.342470000000000141e+02,5.612467214214224805e+04
4.323659999999999854e+02,5.608166359413290775e+04
4.304839999999999804e+02,5.523396610472923203e+04
4.286019999999999754e+02,5.483140069710558600e+04
4.267189999999999941e+02,5.402330633125820168e+04
4.248360000000000127e+02,5.412636403877395787e+04
4.229519999999999982e+02,5.362739277122766362e+04
4.210679999999999836e+02,5.341643356862308428e+04
4.191829999999999927e+02,5.324648537410922290e+04
4.172980000000000018e+02,5.293900923611118924e+04
4.154130000000000109e+02,5.277706515462904645e+04
4.135269999999999868e+02,5.240793206016730983e+04
4.116410000000000196e+02,5.240109101379112690e+04
4.097540000000000191e+02,5.221920093757027644e+04
4.078670000000000186e+02,5.177116290100011247e+04
4.059789999999999850e+02,5.149667581771119148e+04
4.040910000000000082e+02,5.149696076563368842e+04
4.022019999999999982e+02,5.136973664995440049e+04
4.003129999999999882e+02,5.107926455704279942e+04
3.984230000000000018e+02,5.116590338363743649e+04
3.965330000000000155e+02,5.080275422455153603e+04
3.946429999999999723e+02,5.089075707978509308e+04
3.927520000000000095e+02,5.060103083339876321e+04
3.908600000000000136e+02,5.026283547271012503e+04
3.889689999999999941e+02,5.020335323382986826e+04
3.870760000000000218e+02,5.003440074356169498e+04
3.851829999999999927e+02,4.990680024224148656e+04
3.832900000000000205e+02,4.985505172986927937e+04
3.813960000000000150e+02,4.965115406511852052e+04
3.795020000000000095e+02,4.946132838084965624e+04
3.776080000000000041e+02,4.956587467706267489e+04
3.757119999999999891e+02,4.940827064569279173e+04
3.738170000000000073e+02,4.919559973613131297e+04
3.719209999999999923e+02,4.924289963607258687e+04
3.700240000000000009e+02,4.914949033280072035e+04
3.681270000000000095e+02,4.847705298458557081e+04
3.662300000000000182e+02,4.865456759142717056e+04
3.643319999999999936e+02,4.867271297385120124e+04
3.624340000000000259e+02,4.841405030284798704e+04
3.605350000000000250e+02,4.866065839045478788e+04
3.586360000000000241e+02,4.851811841614589503e+04
3.567359999999999900e+02,4.843784918346558698e+04
3.548360000000000127e+02,4.863893188037663640e+04
3.529350000000000023e+02,4.866138530192598409e+04
3.510339999999999918e+02,4.855923064456925204e+04
3.491320000000000050e+02,4.846848669485155551e+04
3.472300000000000182e+02,4.826929465772591357e+04
3.453279999999999745e+02,4.831673453319235705e+04
3.434250000000000114e+02,4.846566509503753332e+04
3.415210000000000150e+02,4.828442633049856522e+04
3.396170000000000186e+02,4.797569946153451747e+04
3.377130000000000223e+02,4.808856448814538453e+04
3.358079999999999927e+02,4.794108016708948708e+04
3.339030000000000200e+02,4.801254773309321899e+04
3.319970000000000141e+02,4.814598593439513206e+04
3.300910000000000082e+02,4.779943601423693326e+04
3.281840000000000259e+02,4.807197671233290748e+04
3.262769999999999868e+02,4.800992928044455766e+04
3.243690000000000282e+02,4.796945244975744572e+04
3.224610000000000127e+02,4.809050748055730219e+04
3.205520000000000209e+02,4.829487309549652127e+04
3.186429999999999723e+02,4.778863056338953174e+04
3.167339999999999804e+02,4.803077988423629722e+04
3.148240000000000123e+02,4.798411976788395259e+04
3.129130000000000109e+02,4.794811020152267156e+04
3.110020000000000095e+02,4.804161247103540518e+04
3.090910000000000082e+02,4.803546657642213540e+04
3.071789999999999736e+02,4.807859121043907362e+04
3.052669999999999959e+02,4.795882767178341601e+04
3.033539999999999850e+02,4.777809464466033387e+04
3.014399999999999977e+02,4.763695211623983050e+04
2.995269999999999868e+02,4.748466272239282262e+04
2.976120000000000232e+02,4.743290249006137310e+04
2.956979999999999791e+02,4.737329539230342198e+04
2.937819999999999823e+02,4.748543743038101820e+04
2.918670000000000186e+02,4.736543260303210263e+04
2.899510000000000218e+02,4.701723823158581217e+04
2.880339999999999918e+02,4.700379430319207313e+04
2.861170000000000186e+02,4.672620215932575229e+04
2.841990000000000123e+02,4.705948044136966200e+04
2.822810000000000059e+02,4.665935049936758878e+04
2.803629999999999995e+02,4.679217233331953321e+04
2.784440000000000168e+02,4.656360457174255862e+04
2.765240000000000009e+02,4.683072720176649455e+04
2.746039999999999850e+02,4.637246159058422927e+04
2.726840000000000259e+02,4.631360773819573660e+04
2.707629999999999768e+02,4.626160425594668777e+04
2.688419999999999845e+02,4.631121252390457812e+04
2.669200000000000159e+02,4.606117114482380566e+04
2.649970000000000141e+02,4.607326010581402079e+04
2.630749999999999886e+02,4.591318220566780656e+04
2.611510000000000105e+02,4.614457322685416148e+04
2.592269999999999754e+02,4.570587597246021323e+04
2.573029999999999973e+02,4.588143044248587830e+04
2.553789999999999907e+02,4.592601663693122100e+04
2.534530000000000030e+02,4.640913170109430212e+04
2.515279999999999916e+02,4.605979990412094048e+04
2.496009999999999991e+02,4.615859695103777631e+04
2.476750000000000114e+02,4.642626713681815454e+04
2.457479999999999905e+02,4.647208758522717108e+04
2.438199999999999932e+02,4.639861828334096936e+04
2.418919999999999959e+02,4.678714067142876593e+04
2.399629999999999939e+02,4.669975329198062536e+04
2.380339999999999918e+02,4.710989759388389211e+04
2.361049999999999898e+02,4.716513357713854930e+04
2.341750000000000114e+02,4.732297977129520586e+04
2.322439999999999998e+02,4.722397616340990498e+04
2.303129999999999882e+02,4.751004421961739718e+04
2.283820000000000050e+02,4.730756393991770165e+04
2.264499999999999886e+02,4.760685383659160289e+04
2.245180000000000007e+02,4.782393538872230420e+04
2.225850000000000080e+02,4.792026709995012789e+04
2.206510000000000105e+02,4.787104895731100260e+04
2.187179999999999893e+02,4.804108395785007451e+04
2.167829999999999870e+02,4.781280758654683450e+04
2.148480000000000132e+02,4.775274284476552566e+04
2.129130000000000109e+02,4.801720973250613315e+04
2.109770000000000039e+02,4.797088672745854274e+04
2.090409999999999968e+02,4.808863534327897651e+04
2.071040000000000134e+02,4.795213404899895249e+04
2.051670000000000016e+02,4.800644436692860472e+04
2.032290000000000134e+02,4.801284475743657094e+04
2.012909999999999968e+02,4.833607675149138231e+04
1.993520000000000039e+02,4.831389880079438444e+04
1.974130000000000109e+02,4.822785244497693202e+04
1.954730000000000132e+02,4.814373612706855783e+04
1.935329999999999870e+02,4.815093139536796662e+04
1.915929999999999893e+02,4.823467824987512722e+04
1.896510000000000105e+02,4.827835355062042072e+04
1.877100000000000080e+02,4.834902199454393121e+04
1.857680000000000007e+02,4.876578043733229424e+04
1.838249999999999886e+02,4.884422886596109311e+04
1.818820000000000050e+02,4.879040885475550022e+04
1.799379999999999882e+02,4.875109881201549433e+04
1.779939999999999998e+02,4.908042032075141469e+04
1.760500000000000114e+02,4.941321338096327963e+04
1.741049999999999898e+02,4.947527638791099889e+04
1.721589999999999918e+02,4.974370932854999410e+04
1.702129999999999939e+02,4.982249380327219114e+04
1.682659999999999911e+02,5.017126819428400631e+04
1.663189999999999884e+02,5.033065411067594687e+04
1.643720000000000141e+02,5.061965155244801281e+04
1.624240000000000066e+02,5.095555888874641096e+04
1.604749999999999943e+02,5.114823610650647606e+04
1.585260000000000105e+02,5.143910483222709445e+04
1.565769999999999982e+02,5.171316506590829522e+04
1.546270000000000095e+02,5.197283515926550899e+04
1.526759999999999877e+02,5.203871509922068071e+04
1.507249999999999943e+02,5.206844652969895105e+04
1.487740000000000009e+02,5.250990945070034650e+04
1.468220000000000027e+02,5.270128219649169478e+04
1.448700000000000045e+02,5.262264642408071086e+04
1.429170000000000016e+02,5.276332045900437515e+04
1.409629999999999939e+02,5.350472428816444881e+04
1.390089999999999861e+02,5.360457958165793389e+04
1.370550000000000068e+02,5.332116633948482195e+04
1.350999999999999943e+02,5.331780286970661109e+04
1.331440000000000055e+02,5.330582915921168751e+04
1.311879999999999882e+02,5.374408689556799072e+04
1.292319999999999993e+02,5.383893607877555041e+04
1.272750000000000057e+02,5.403193499940251786e+04
1.253179999999999978e+02,5.429742535813295399e+04
1.233599999999999994e+02,5.433638543678272981e+04
1.214009999999999962e+02,5.387883522222012834e+04
1.194419999999999931e+02,5.373931642825199378e+04
1.174830000000000041e+02,5.381502905487834505e+04
1.155229999999999961e+02,5.304611136639490724e+04
1.135630000000000024e+02,5.289078508974473516e+04
1.116020000000000039e+02,5.236692848045790743e+04
1.096400000000000006e+02,5.278178152538254653e+04
1.076779999999999973e+02,5.323136596460465080e+04
1.057159999999999940e+02,5.267562179812422255e+04
1.037530000000000001e+02,5.176012726392431068e+04
1.017900000000000063e+02,5.189198411524726544e+04
9.982569999999999766e+01,5.233758805005781323e+04
9.786119999999999663e+01,5.305507500393962982e+04
9.589629999999999654e+01,5.367733661834130908e+04
9.393080000000000496e+01,5.522844453119636455e+04
9.196490000000000009e+01,5.608726709226990351e+04
8.999840000000000373e+01,5.601129593773456145e+04
8.803149999999999409e+01,5.589933941911007423e+04
8.606399999999999295e+01,5.628004917080728774e+04
8.409610000000000696e+01,5.650893354610147071e+04
8.212760000000000105e+01,5.507506417764077923e+04
8.015860000000000696e+01,5.324225523898044048e+04
7.818909999999999627e+01,5.239402672351766523e+04
7.621909999999999741e+01,5.222469862464804464e+04
7.424869999999999948e+01,5.160668511856316763e+04
7.227760000000000673e+01,4.959378365026213578e+04
7.030610000000000070e+01,4.453359676152860629e+04
6.833410000000000650e+01,3.664499026295371004e+04
6.636159999999999570e+01,2.705226414792466312e+04
6.438859999999999673e+01,1.721671840982693902e+04
6.241499999999999915e+01,9.524138856601197404e+03
6.044100000000000250e+01,4.302329852074669361e+03
5.846640000000000015e+01,1.002711018299896296e+03
