1.838309999999999945e+03,-7.826667384904430946e+02
1.836750000000000000e+03,-1.698843223980657058e+02
1.835180000000000064e+03,-4.771183394973922987e+01
1.833609999999999900e+03,1.133933166111382889e+02
1.832049999999999955e+03,7.601441443875955883e+01
1.830480000000000018e+03,1.665050633513747016e+02
1.828910000000000082e+03,1.188283743765496183e+02
1.827339999999999918e+03,1.378243475142371608e+02
1.825779999999999973e+03,-2.328303668374428526e+01
1.824210000000000036e+03,-2.722156519429699983e+01
1.822640000000000100e+03,1.900325684076669859e+02
1.821069999999999936e+03,2.070593641221930739e+02
1.819500000000000000e+03,3.855988219492428470e+02
1.817930000000000064e+03,7.950941888819215819e+00
1.816359999999999900e+03,1.004957239409559406e+02
1.814789999999999964e+03,2.324531681055959780e+02
1.813220000000000027e+03,1.332232743827917147e+02
1.811650000000000091e+03,3.399260427725093905e+02
1.810079999999999927e+03,-1.382385267251956975e+02
1.808500000000000000e+03,9.474366994442243595e+01
1.806930000000000064e+03,-9.563574945491563994e+01
1.805359999999999900e+03,2.686174932583089685e+02
1.803789999999999964e+03,-1.290166019159660209e+02
1.802210000000000036e+03,-2.541846285386272939e+02
1.800640000000000100e+03,-1.621735736144910334e+02
1.799069999999999936e+03,1.449501434221892850e+02
1.797490000000000009e+03,-6.056059447863663081e+01
1.795920000000000073e+03,-2.681717273435788229e+02
1.794339999999999918e+03,-2.598176645084458869e+02
1.792769999999999982e+03,-3.495036472749779932e+02
1.791190000000000055e+03,-1.503647837038588477e+02
1.789619999999999891e+03,2.969438362802611664e+01
1.788039999999999964e+03,-1.685619520649197511e+02
1.786470000000000027e+03,-1.490776346346247010e+02
1.784890000000000100e+03,-3.063491695915872697e+02
1.783309999999999945e+03,-1.030283917984488653e+02
1.781740000000000009e+03,2.201535637161141494e+02
1.780160000000000082e+03,4.093591422452300321e+02
1.778579999999999927e+03,1.728370335244544549e+02
1.777000000000000000e+03,5.346272375537664630e+02
1.775430000000000064e+03,7.902393191384617239e+02
1.773849999999999909e+03,7.583943239037616877e+02
1.772269999999999982e+03,8.168016414191661170e+02
1.770690000000000055e+03,1.193361271684669191e+03
1.769109999999999900e+03,1.023433214700300596e+03
1.767529999999999973e+03,9.080174704660312273e+02
1.765950000000000045e+03,8.401140389818610856e+02
1.764369999999999891e+03,9.692829202478023944e+02
1.762789999999999964e+03,8.349441142638243036e+02
1.761210000000000036e+03,8.597376210299844388e+02
1.759619999999999891e+03,6.922121233834041050e+02
1.758039999999999964e+03,4.751900804140022956e+02
1.756460000000000036e+03,4.580003501946921460e+02
1.754880000000000109e+03,6.082429327254940290e+02
1.753289999999999964e+03,4.453258087914873613e+02
1.751710000000000036e+03,8.263284158674650826e+01
1.750130000000000109e+03,1.488521871320990613e+02
1.748539999999999964e+03,-9.816870060372457374e+01
1.746960000000000036e+03,8.801509520609397441e+01
1.745369999999999891e+03,-2.283416938458831282e+02
1.743789999999999964e+03,-2.340134477716201218e+02
1.742200000000000045e+03,-4.107461381397588411e+02
1.740619999999999891e+03,-6.920734418010397349e+02
1.739029999999999973e+03,-4.524420334853348322e+02
1.737450000000000045e+03,-5.895448868821549695e+02
1.735859999999999900e+03,-7.648093798826012062e+02
1.734269999999999982e+03,-1.045561911713550217e+03
1.732690000000000055e+03,-7.512081773315876490e+02
1.731099999999999909e+03,-1.075316610478665098e+03
1.729509999999999991e+03,-7.071530824562651105e+02
1.727920000000000073e+03,-9.174975932643719716e+02
1.726329999999999927e+03,-5.879301429029437713e+02
1.724750000000000000e+03,-7.845755457134946482e+02
1.723160000000000082e+03,-4.378639966682239901e+02
1.721569999999999936e+03,-7.135204864535044180e+02
1.719980000000000018e+03,-7.726850150692334864e+02
1.718390000000000100e+03,-5.129975825154833728e+02
1.716799999999999955e+03,-7.281381887922034366e+02
1.715210000000000036e+03,-4.638268338994821534e+02
1.713609999999999900e+03,-7.515399379096925259e+02
1.712019999999999982e+03,-8.521248370227694977e+02
1.710430000000000064e+03,-6.294177749663649593e+02
1.708839999999999918e+03,-4.787387517404567916e+02
1.707250000000000000e+03,-4.107077673450548900e+02
1.705650000000000091e+03,-4.181621246859285748e+02
1.704059999999999945e+03,-4.414673942963563604e+02
1.702470000000000027e+03,8.999297262722393498e+00
1.700869999999999891e+03,-4.809988305815204512e+01
1.699279999999999973e+03,-2.946944550491753034e+01
1.697690000000000055e+03,6.001295321781071834e+01
1.696089999999999918e+03,-5.631105008299346082e+01
1.694500000000000000e+03,-7.604905366111779585e+00
1.692900000000000091e+03,-9.128551647157291882e+01
1.691299999999999955e+03,-2.417452020628843457e+01
1.689710000000000036e+03,3.427071553294081241e+02
1.688109999999999900e+03,3.188615437900734833e+02
1.686509999999999991e+03,4.293275396214303328e+02
1.684920000000000073e+03,4.233847459759417688e+02
1.683319999999999936e+03,1.227941340027173283e+02
1.681720000000000027e+03,3.906351294001797214e+02
1.680119999999999891e+03,6.587077321683609625e+02
1.678529999999999973e+03,5.572722541663533775e+02
1.676930000000000064e+03,9.696482491299102549e+02
1.675329999999999927e+03,6.039158514642185764e+02
1.673730000000000018e+03,8.488750611692375969e+02
1.672130000000000109e+03,9.443258782449702267e+02
1.670529999999999973e+03,7.156883026914292714e+02
1.668930000000000064e+03,5.090023345086083282e+02
1.667329999999999927e+03,8.655679736965248594e+02
1.665730000000000018e+03,6.945652202551573282e+02
1.664130000000000109e+03,9.116940741844882723e+02
1.662519999999999982e+03,8.121124490861839149e+02
1.660920000000000073e+03,7.273643403030437184e+02
1.659319999999999936e+03,9.012878388906246983e+02
1.657720000000000027e+03,3.139629448489286005e+02
1.656109999999999900e+03,5.954268608547572512e+02
1.654509999999999991e+03,3.966450041005591629e+02
1.652910000000000082e+03,3.254547547170950565e+02
1.651299999999999955e+03,3.492727819102728972e+02
1.649700000000000045e+03,2.142055698143085465e+02
1.648089999999999918e+03,1.277662782780535053e+02
1.646490000000000009e+03,1.058421034696220886e+02
1.644880000000000109e+03,2.517854932038899278e+02
1.643279999999999973e+03,2.812843556829611771e+02
1.641670000000000073e+03,7.561042668781010434e+01
1.640059999999999945e+03,2.133677490464324364e+02
1.638460000000000036e+03,3.978210787297866773e+02
1.636849999999999909e+03,3.421082358981948346e+00
1.635240000000000009e+03,-2.069876626580953598e+02
1.633630000000000109e+03,-1.166051563213695772e+02
1.632029999999999973e+03,-2.375259295169089455e+02
1.630420000000000073e+03,-1.072074190965213347e+01
1.628809999999999945e+03,7.527569705137284473e+01
1.627200000000000045e+03,-1.740766126338130562e+02
1.625589999999999918e+03,4.918232903476746287e+01
1.623980000000000018e+03,-1.873474779428943293e+02
1.622369999999999891e+03,-3.566860335667734034e+02
1.620759999999999991e+03,-4.085933378369081765e+02
1.619150000000000091e+03,-7.609293907532410230e+02
1.617539999999999964e+03,-6.091541923158220015e+02
1.615930000000000064e+03,-7.363677425246423809e+02
1.614309999999999945e+03,-6.824774746868788498e+02
1.612700000000000045e+03,-8.703887007511802949e+02
1.611089999999999918e+03,-7.925286754617118277e+02
1.609480000000000018e+03,-7.686573988184682094e+02
1.607859999999999900e+03,-9.397830194898124319e+02
1.606250000000000000e+03,-1.072669418702047551e+03
1.604640000000000100e+03,-1.097984566560538951e+03
1.603019999999999982e+03,-1.146297148531724815e+03
1.601410000000000082e+03,-1.006589972245696117e+03
1.599789999999999964e+03,-1.160140588307505823e+03
1.598180000000000064e+03,-8.192710878769576084e+02
1.596559999999999945e+03,-7.042197380293800961e+02
1.594940000000000055e+03,-7.831774950631806860e+02
1.593329999999999927e+03,-9.288745976973586949e+02
1.591710000000000036e+03,-8.627103888217534404e+02
1.590089999999999918e+03,-9.397752868275129003e+02
1.588480000000000018e+03,-1.044518992526398506e+03
1.586859999999999900e+03,-1.032181924622782390e+03
1.585240000000000009e+03,-1.133513963600504212e+03
1.583619999999999891e+03,-1.034995109459603555e+03
1.582000000000000000e+03,-9.080653622000536416e+02
1.580380000000000109e+03,-1.020844721821864368e+03
1.578759999999999991e+03,-8.016531883250281680e+02
1.577150000000000091e+03,-6.725992059256677749e+02
1.575519999999999982e+03,-6.666374419754283736e+02
1.573900000000000091e+03,-4.100332291226659436e+02
1.572279999999999973e+03,-6.628181231512426166e+02
1.570660000000000082e+03,-5.151921240612282418e+02
1.569039999999999964e+03,-5.360152318525215378e+02
1.567420000000000073e+03,-2.364874465251923539e+02
1.565799999999999955e+03,-3.260687680792034371e+02
1.564170000000000073e+03,-4.366321907844394445e+02
1.562549999999999955e+03,-2.078919057732855435e+02
1.560930000000000064e+03,-1.883807276434963569e+02
1.559299999999999955e+03,-1.215321907903125975e+02
1.557680000000000064e+03,1.661205939046631102e+02
1.556059999999999945e+03,6.863642717182665365e+02
1.554430000000000064e+03,5.729247681298875250e+02
1.552809999999999945e+03,-1.512994749132485595e+01
1.551180000000000064e+03,5.253179503214778379e+01
1.549549999999999955e+03,1.841240702209615847e+02
1.547930000000000064e+03,-3.201832538856251631e+01
1.546299999999999955e+03,1.800551959121512482e+02
1.544680000000000064e+03,7.157440686781774275e+01
1.543049999999999955e+03,2.055091742803924717e+02
1.541420000000000073e+03,9.425447435828391463e+01
1.539789999999999964e+03,8.435030710157298017e+01
1.538170000000000073e+03,3.104325515154632740e+02
1.536539999999999964e+03,4.853096303705970058e+02
1.534910000000000082e+03,4.953372418910585111e+02
1.533279999999999973e+03,5.492153860768739833e+02
1.531650000000000091e+03,8.221240629280073335e+02
1.530019999999999982e+03,6.829632724444963969e+02
1.528390000000000100e+03,6.425930146263126517e+02
1.526759999999999991e+03,5.127332894735009177e+02
1.525130000000000109e+03,7.176840969860058976e+02
1.523500000000000000e+03,6.834854371638502926e+02
1.521859999999999900e+03,7.922996231897705002e+02
1.520230000000000018e+03,8.729618479171040235e+02
1.518599999999999909e+03,6.993746053097856930e+02
1.516970000000000027e+03,6.909378953677951358e+02
1.515329999999999927e+03,7.154733070400397992e+02
1.513700000000000045e+03,7.471174816475249827e+02
1.512069999999999936e+03,6.355521889203955652e+02
1.510430000000000064e+03,7.616184743547491962e+02
1.508799999999999955e+03,7.320940661770728184e+02
1.507160000000000082e+03,1.001560873489477672e+03
1.505529999999999973e+03,6.790373498612898402e+02
1.503890000000000100e+03,6.445446790517016780e+02
1.502259999999999991e+03,5.413620399729989003e+02
1.500619999999999891e+03,6.328098910414264537e+02
1.498980000000000018e+03,2.133679121036839206e+02
1.497349999999999909e+03,2.762165094586380292e+02
1.495710000000000036e+03,2.384950523989100475e+02
1.494069999999999936e+03,3.192237653330739704e+02
1.492430000000000064e+03,2.585826482610937092e+02
1.490789999999999964e+03,5.117317011829873081e+02
1.489160000000000082e+03,2.775722387398418505e+02
1.487519999999999982e+03,2.874818135397363221e+02
1.485880000000000109e+03,1.619215583334735129e+02
1.484240000000000009e+03,4.639914731211174512e+02
1.482599999999999909e+03,1.683155790260934737e+01
1.480960000000000036e+03,2.776218126779567683e+02
1.479319999999999936e+03,4.464223744718765374e+01
1.477670000000000073e+03,-1.694497556628193706e+02
1.476029999999999973e+03,3.170827203852240928e+00
1.474390000000000100e+03,-2.033984199356200406e+02
1.472750000000000000e+03,-2.153374970812219544e+02
1.471109999999999900e+03,-5.224640423295204528e+01
1.469460000000000036e+03,-1.881886398243950680e+02
1.467819999999999936e+03,-5.085973888786902535e+02
1.466180000000000064e+03,-5.113559679391255486e+02
1.464529999999999973e+03,-5.065884222191743902e+02
1.462890000000000100e+03,-7.492068431821608101e+02
1.461240000000000009e+03,-7.796395042544245371e+02
1.459599999999999909e+03,-7.260777671199466567e+02
1.457950000000000045e+03,-6.231306349844162469e+02
1.456309999999999945e+03,-5.258687397524990956e+02
1.454660000000000082e+03,-6.019018144091751310e+02
1.453009999999999991e+03,-5.919850839616119629e+02
1.451369999999999891e+03,-4.847730425286572427e+02
1.449720000000000027e+03,-3.288765188733159448e+02
1.448069999999999936e+03,-3.286901901137534878e+02
1.446420000000000073e+03,-3.742940562499861699e+02
1.444769999999999982e+03,-2.673481172819883795e+02
1.443119999999999891e+03,-8.792373209769721143e+00
1.441480000000000018e+03,-2.457202212650445290e+02
1.439829999999999927e+03,-1.831246839850282413e+02
1.438180000000000064e+03,-1.238593416008297936e+02
1.436529999999999973e+03,-1.944194112387776840e+00
1.434880000000000109e+03,9.700758480255899485e+00
1.433220000000000027e+03,-5.237200158803170780e+01
1.431569999999999936e+03,-1.285676217863074271e+02
1.429920000000000073e+03,-1.339343688038934488e+01
1.428269999999999982e+03,7.330553129759209696e+00
1.426619999999999891e+03,5.584434824412164744e+01
1.424960000000000036e+03,1.768795145916155889e+02
1.423309999999999945e+03,1.554527369150309823e+02
1.421660000000000082e+03,2.924957643426605500e+02
1.420000000000000000e+03,3.541396128962296643e+02
1.418349999999999909e+03,1.704020675329302321e+02
1.416700000000000045e+03,7.925432727383304155e+01
1.415039999999999964e+03,3.448468580334956641e+02
1.413380000000000109e+03,2.777088267895378522e+02
1.411730000000000018e+03,2.119301358443626668e+02
1.410069999999999936e+03,1.696111647016514326e+02
1.408420000000000073e+03,1.147919009655233822e+02
1.406759999999999991e+03,1.247519899240578525e+02
1.405099999999999909e+03,2.086215168789713061e+02
1.403450000000000045e+03,1.447313024567629327e+02
1.401789999999999964e+03,2.252798895129235461e+02
1.400130000000000109e+03,2.888379145654616877e+02
1.398470000000000027e+03,3.660053776144050062e+02
1.396809999999999945e+03,4.340622786597377853e+02
1.395150000000000091e+03,4.885486177014463465e+02
1.393490000000000009e+03,5.897043947395504802e+02
1.391829999999999927e+03,4.362696097740627010e+02
1.390170000000000073e+03,6.334642628049550694e+02
1.388509999999999991e+03,6.357683538322380628e+02
1.386849999999999909e+03,4.881818828559044050e+02
1.385190000000000055e+03,5.789648498759706854e+02
1.383529999999999973e+03,5.831172548924296279e+02
1.381859999999999900e+03,6.361458838688777178e+02
1.380200000000000045e+03,6.619169807696744101e+02
1.378539999999999964e+03,4.681775156668445561e+02
1.376880000000000109e+03,3.643874885604018345e+02
1.375210000000000036e+03,3.354329478710496915e+02
1.373549999999999955e+03,3.320816126489444287e+02
1.371880000000000109e+03,1.358053945179126458e+02
1.370220000000000027e+03,-1.338672488198644714e+02
1.368549999999999955e+03,3.140748556074468070e+02
1.366890000000000100e+03,3.299409041539911414e+02
1.365220000000000027e+03,2.257013311396294739e+02
1.363559999999999945e+03,2.434060715704981703e+02
1.361890000000000100e+03,2.700048211144530796e+02
1.360220000000000027e+03,2.602926393288216786e+02
1.358549999999999955e+03,3.336695262135690427e+02
1.356890000000000100e+03,9.229146630463947076e+01
1.355220000000000027e+03,2.573866757477226201e+02
1.353549999999999955e+03,9.547095386118598981e+01
1.351880000000000109e+03,-4.333569935496780090e+01
1.350210000000000036e+03,-9.277328390070761088e+01
1.348539999999999964e+03,5.543820022395811975e+01
1.346869999999999891e+03,1.721587530190008692e+02
1.345200000000000045e+03,1.358283744844156899e+02
1.343529999999999973e+03,1.055470646202811622e+02
1.341859999999999900e+03,-1.345176573515345808e+00
1.340190000000000055e+03,9.197165090309135849e+01
1.338519999999999982e+03,-1.509624529498905758e+02
1.336849999999999909e+03,6.763251186751585919e+01
1.335170000000000073e+03,-2.768818470086771413e+02
1.333500000000000000e+03,-2.185889300680282759e+02
1.331829999999999927e+03,-2.329269444569872576e+02
1.330150000000000091e+03,-4.764748393012705492e+02
1.328480000000000018e+03,-3.231549015669734217e+02
1.326799999999999955e+03,-5.078052158321806928e+02
1.325130000000000109e+03,-7.301073259746408439e+02
1.323450000000000045e+03,-4.894800596607674379e+02
1.321779999999999973e+03,-6.093842176800026209e+02
1.320099999999999909e+03,-5.392593707870546496e+02
1.318430000000000064e+03,-4.622255766830421635e+02
1.316750000000000000e+03,-3.873831492110330146e+02
1.315069999999999936e+03,-2.631120246127757127e+02
1.313400000000000091e+03,-1.533513949326661532e+02
1.311720000000000027e+03,-1.904026897553703748e+02
1.310039999999999964e+03,-1.982252874518308090e+02
1.308359999999999900e+03,-1.238391880220660823e+02
1.306680000000000064e+03,-4.494443914660951123e+02
1.305000000000000000e+03,-3.595208977839138242e+02
1.303319999999999936e+03,-4.944287069754936965e+02
1.301640000000000100e+03,-3.072078190408574301e+02
1.299960000000000036e+03,-3.733182339799968759e+02
1.298279999999999973e+03,-3.584799517929131980e+02
1.296599999999999909e+03,-2.939729724796197843e+02
1.294920000000000073e+03,-2.479172960400974262e+02
1.293240000000000009e+03,-2.714529224743528175e+02
1.291559999999999945e+03,-3.125398517823850852e+02
1.289869999999999891e+03,-4.663015004926637630e+02
1.288190000000000055e+03,-6.763122187490080250e+01
1.286509999999999991e+03,-3.252322461308940547e+02
1.284819999999999936e+03,-4.408685498781123897e+02
1.283140000000000100e+03,-2.722523662083112868e+02
1.281450000000000045e+03,-2.296518357920722337e+02
1.279769999999999982e+03,-1.124984441964479629e+02
1.278079999999999927e+03,-2.366810796167192166e+02
1.276400000000000091e+03,-2.117904800953110680e+02
1.274710000000000036e+03,-2.125628135212900816e+01
1.273029999999999973e+03,-4.862847390487877419e+01
1.271339999999999918e+03,2.648025590017641662e+02
1.269650000000000091e+03,2.248019152722772560e+02
1.267960000000000036e+03,5.864959490667388309e+01
1.266279999999999973e+03,1.666716318789112847e+02
1.264589999999999918e+03,7.611614567678043386e+01
1.262900000000000091e+03,2.621489828385019791e+02
1.261210000000000036e+03,1.076701433641137555e+02
1.259519999999999982e+03,1.849796272535895696e+02
1.257829999999999927e+03,3.738374345069532865e+02
1.256140000000000100e+03,2.993035651241734740e+02
1.254450000000000045e+03,2.360580191052795271e+02
1.252759999999999991e+03,1.246207964502536925e+02
1.251069999999999936e+03,2.068918971591047011e+02
1.249380000000000109e+03,4.088313212318535079e+02
1.247680000000000064e+03,3.266109729015952325e+02
1.245990000000000009e+03,3.960668562663631747e+02
1.244299999999999955e+03,5.726910629949925351e+02
1.242609999999999900e+03,5.050635930875141639e+02
1.240910000000000082e+03,5.595955999250654713e+02
1.239220000000000027e+03,5.657845893096091459e+02
1.237519999999999982e+03,8.306726794587011682e+02
1.235829999999999927e+03,7.698381281352849328e+02
1.234130000000000109e+03,7.310423015958658652e+02
1.232440000000000055e+03,6.044442095644917572e+02
1.230740000000000009e+03,7.520644663365892484e+02
1.229049999999999955e+03,5.504028335972398054e+02
1.227349999999999909e+03,6.431191736808614223e+02
1.225650000000000091e+03,5.272234611478270381e+02
1.223960000000000036e+03,7.610864236286724918e+02
1.222259999999999991e+03,8.719667944071552483e+02
1.220559999999999945e+03,9.433751125690032495e+02
1.218859999999999900e+03,9.882113781141961226e+02
1.217160000000000082e+03,1.059815591042737651e+03
1.215460000000000036e+03,1.139347751354645879e+03
1.213759999999999991e+03,1.273867859049911203e+03
1.212059999999999945e+03,1.329475914128524892e+03
1.210359999999999900e+03,1.246591916590499750e+03
1.208660000000000082e+03,1.266015866435809585e+03
1.206960000000000036e+03,1.411847763664474769e+03
1.205259999999999991e+03,1.561407608276509563e+03
1.203559999999999945e+03,1.431535400271888648e+03
1.201859999999999900e+03,1.564011139650632686e+03
1.200150000000000091e+03,1.639061459154967451e+03
1.198450000000000045e+03,1.648412904755612544e+03
1.196750000000000000e+03,1.716432297739615024e+03
1.195039999999999964e+03,1.891485704105696641e+03
1.193339999999999918e+03,1.878480803311605996e+03
1.191630000000000109e+03,2.008809537700901274e+03
1.189930000000000064e+03,2.430980343128707318e+03
1.188220000000000027e+03,2.353864405541229644e+03
1.186519999999999982e+03,2.387370917190943146e+03
1.184809999999999945e+03,2.570190307626660797e+03
1.183099999999999909e+03,2.927017267247043492e+03
1.181400000000000091e+03,2.873647243957202591e+03
1.179690000000000055e+03,2.735289531600807095e+03
1.177980000000000018e+03,3.035919388429058017e+03
1.176269999999999982e+03,3.315896814441985043e+03
1.174569999999999936e+03,3.307598015051138646e+03
1.172859999999999900e+03,3.412710769087272638e+03
1.171150000000000091e+03,3.513971092308041989e+03
1.169440000000000055e+03,3.610798984713495884e+03
1.167730000000000018e+03,3.660514446303590375e+03
1.166019999999999982e+03,3.844377477078356605e+03
1.164309999999999945e+03,4.005388077037772746e+03
1.162599999999999909e+03,4.060226246181860915e+03
1.160880000000000109e+03,4.272694261867858586e+03
1.159170000000000073e+03,4.350847379727383668e+03
1.157460000000000036e+03,4.586328066771544400e+03
1.155750000000000000e+03,4.786636323000369885e+03
1.154029999999999973e+03,4.919373666046478320e+03
1.152319999999999936e+03,4.783736870990738680e+03
1.150609999999999900e+03,5.177307645119668450e+03
1.148890000000000100e+03,5.138946935995096283e+03
1.147180000000000064e+03,5.240972658839433279e+03
1.145460000000000036e+03,5.434366518013433961e+03
1.143750000000000000e+03,5.455227189573204669e+03
1.142029999999999973e+03,5.670075617045775289e+03
1.140319999999999936e+03,5.631751237320953805e+03
1.138599999999999909e+03,6.078294233092077775e+03
1.136880000000000109e+03,6.097164417630978278e+03
1.135160000000000082e+03,6.511081790937692858e+03
1.133450000000000045e+03,6.669107118989857554e+03
1.131730000000000018e+03,6.571699060595121409e+03
1.130009999999999991e+03,6.890098190968165000e+03
1.128289999999999964e+03,7.157144510109006660e+03
1.126569999999999936e+03,7.166158018017631548e+03
1.124849999999999909e+03,7.312958714694053924e+03
1.123130000000000109e+03,7.513766600138253125e+03
1.121410000000000082e+03,7.420961674350262911e+03
1.119690000000000055e+03,7.596083937330040499e+03
1.117970000000000027e+03,7.624133389077629545e+03
1.116250000000000000e+03,7.817150029593016370e+03
1.114529999999999973e+03,8.223153858876175946e+03
1.112799999999999955e+03,8.270101821793730778e+03
1.111079999999999927e+03,8.414099837849491450e+03
1.109359999999999900e+03,8.580325042673051939e+03
1.107630000000000109e+03,9.067813807732956775e+03
1.105910000000000082e+03,8.920293199329113122e+03
1.104190000000000055e+03,9.041659779693080054e+03
1.102460000000000036e+03,9.364069346895361377e+03
1.100740000000000009e+03,9.416250114031914563e+03
1.099009999999999991e+03,9.435613485371766728e+03
1.097279999999999973e+03,9.645303662844380597e+03
1.095559999999999945e+03,9.908565614758350421e+03
1.093829999999999927e+03,9.816309596368504572e+03
1.092099999999999909e+03,9.926160384111411986e+03
1.090380000000000109e+03,9.830023520802780695e+03
1.088650000000000091e+03,1.014204811268325284e+04
1.086920000000000073e+03,1.037327951069647679e+04
1.085190000000000055e+03,1.056935771484243742e+04
1.083460000000000036e+03,1.090014272512114985e+04
1.081730000000000018e+03,1.096971454153260129e+04
1.080000000000000000e+03,1.094327316407680337e+04
1.078269999999999982e+03,1.119367859275377850e+04
1.076539999999999964e+03,1.116491082756346441e+04
1.074809999999999945e+03,1.148272986850591406e+04
1.073079999999999927e+03,1.151453571558112162e+04
1.071349999999999909e+03,1.160236836878905160e+04
1.069609999999999900e+03,1.159475998284923844e+04
1.067880000000000109e+03,1.187786605645058444e+04
1.066150000000000091e+03,1.205003893618472648e+04
1.064420000000000073e+03,1.235713862205159239e+04
1.062680000000000064e+03,1.236031650017335051e+04
1.060950000000000045e+03,1.274044960643363447e+04
1.059210000000000036e+03,1.275968052009561507e+04
1.057480000000000018e+03,1.283636704674934299e+04
1.055740000000000009e+03,1.289623099595151871e+04
1.054009999999999991e+03,1.311223094299868535e+04
1.052269999999999982e+03,1.332028792774108297e+04
1.050529999999999973e+03,1.345771133376300713e+04
1.048799999999999955e+03,1.355259131546427670e+04
1.047059999999999945e+03,1.376872775702641957e+04
1.045319999999999936e+03,1.383947061986809422e+04
1.043579999999999927e+03,1.401233990398928290e+04
1.041849999999999909e+03,1.407046653460535890e+04
1.040109999999999900e+03,1.427418885426677298e+04
1.038369999999999891e+03,1.422375759520770953e+04
1.036630000000000109e+03,1.456531275742817525e+04
1.034890000000000100e+03,1.454041434092818236e+04
1.033150000000000091e+03,1.447468234570770437e+04
1.031410000000000082e+03,1.480163677176678175e+04
1.029660000000000082e+03,1.484718534302196349e+04
1.027920000000000073e+03,1.477255241865894641e+04
1.026180000000000064e+03,1.501394591557544481e+04
1.024440000000000055e+03,1.508334583377148374e+04
1.022690000000000055e+03,1.534479912412993872e+04
1.020950000000000045e+03,1.525639169190387474e+04
1.019210000000000036e+03,1.540939068095735274e+04
1.017460000000000036e+03,1.570384246212073049e+04
1.015720000000000027e+03,1.561967410075210501e+04
1.013970000000000027e+03,1.582625814442198316e+04
1.012230000000000018e+03,1.572260243263126176e+04
1.010480000000000018e+03,1.581737873880766710e+04
1.008740000000000009e+03,1.594801567659487046e+04
1.006990000000000009e+03,1.585144424527778756e+04
1.005240000000000009e+03,1.568109884816884005e+04
1.003500000000000000e+03,1.577189466383233230e+04
1.001750000000000000e+03,1.567142152922989044e+04
1.000000000000000000e+03,1.578321442883562122e+04
9.982519999999999527e+02,1.576676051468337391e+04
9.965030000000000427e+02,1.557711911693274305e+04
9.947540000000000191e+02,1.581974379219721595e+04
9.930040000000000191e+02,1.568966090627158701e+04
9.912540000000000191e+02,1.571046405455408240e+04
9.895030000000000427e+02,1.549741956401037896e+04
9.877519999999999527e+02,1.569306106884567271e+04
9.860009999999999764e+02,1.546180856905996916e+04
9.842490000000000236e+02,1.537312833334747847e+04
9.824969999999999573e+02,1.541405405416266876e+04
9.807440000000000282e+02,1.541335196132624696e+04
9.789919999999999618e+02,1.511198957576559042e+04
9.772380000000000564e+02,1.526308552861594217e+04
9.754840000000000373e+02,1.508284736022479046e+04
9.737300000000000182e+02,1.489499507059213647e+04
9.719759999999999991e+02,1.469182865971798310e+04
9.702210000000000036e+02,1.463355424071379093e+04
9.684650000000000318e+02,1.454285175518613687e+04
9.667100000000000364e+02,1.420066899639873009e+04
9.649539999999999509e+02,1.414999813214781898e+04
9.631970000000000027e+02,1.419101910400669294e+04
9.614400000000000546e+02,1.374426583780389774e+04
9.596829999999999927e+02,1.393047833353948226e+04
9.579249999999999545e+02,1.366776256795153313e+04
9.561670000000000300e+02,1.362983252531753533e+04
9.544080000000000155e+02,1.354167414336901129e+04
9.526490000000000009e+02,1.347910144536783628e+04
9.508899999999999864e+02,1.314175443131400243e+04
9.491299999999999955e+02,1.307483898040144413e+04
9.473700000000000045e+02,1.282470917440747144e+04
9.456090000000000373e+02,1.255797085347502434e+04
9.438479999999999563e+02,1.259261813841020921e+04
9.420869999999999891e+02,1.215463102921300742e+04
9.403250000000000455e+02,1.228643530742221628e+04
9.385629999999999882e+02,1.204564515242593188e+04
9.367999999999999545e+02,1.186544630666760349e+04
9.350370000000000346e+02,1.159001298860841780e+04
9.332740000000000009e+02,1.128836519824840798e+04
9.315099999999999909e+02,1.129276861936032219e+04
9.297450000000000045e+02,1.100274319325132092e+04
9.279809999999999945e+02,1.079211757196226245e+04
9.262160000000000082e+02,1.080006306431257690e+04
9.244500000000000455e+02,1.037839961157610378e+04
9.226839999999999691e+02,1.041538156911975238e+04
9.209180000000000064e+02,1.004154893694349448e+04
9.191509999999999536e+02,9.873707261748066230e+03
9.173840000000000146e+02,9.635210957648690965e+03
9.156169999999999618e+02,9.486460024645391968e+03
9.138490000000000464e+02,9.193339950635061541e+03
9.120810000000000173e+02,8.935405208514559490e+03
9.103120000000000118e+02,9.012901246952402289e+03
9.085430000000000064e+02,8.700882578051678138e+03
9.067730000000000246e+02,8.303174611230271694e+03
9.050030000000000427e+02,8.119231897819721780e+03
9.032329999999999472e+02,7.787654437819997838e+03
9.014619999999999891e+02,7.535347581745387288e+03
8.996910000000000309e+02,7.536905939808850235e+03
8.979189999999999827e+02,7.341494823229724716e+03
8.961470000000000482e+02,6.966168881493678782e+03
8.943750000000000000e+02,6.838988114600753761e+03
8.926019999999999754e+02,6.450197774800108164e+03
8.908289999999999509e+02,6.225132570525434858e+03
8.890549999999999500e+02,6.075697714686590189e+03
8.872809999999999491e+02,5.737567955034392071e+03
8.855069999999999482e+02,5.697683291568835557e+03
8.837319999999999709e+02,5.401208878163095505e+03
8.819569999999999936e+02,5.272479521582499729e+03
8.801810000000000400e+02,5.088100336316521862e+03
8.784049999999999727e+02,4.995586168492016441e+03
8.766280000000000427e+02,4.878342093192579341e+03
8.748519999999999754e+02,4.670557940553619119e+03
8.730739999999999554e+02,4.491888876700526453e+03
8.712970000000000255e+02,4.434519735507899895e+03
8.695180000000000291e+02,4.331105564816993137e+03
8.677400000000000091e+02,4.197071316786576062e+03
8.659610000000000127e+02,4.112046964140994532e+03
8.641810000000000400e+02,4.213692447688285029e+03
8.624020000000000437e+02,4.047797873626703222e+03
8.606209999999999809e+02,3.870817993837627000e+03
8.588410000000000082e+02,3.773898056439677021e+03
8.570599999999999454e+02,3.836267836784099927e+03
8.552780000000000200e+02,3.981727275612363883e+03
8.534969999999999573e+02,3.814186676584606175e+03
8.517140000000000555e+02,3.946680495289569080e+03
8.499320000000000164e+02,3.833154276138491696e+03
8.481490000000000009e+02,3.726117596887699619e+03
8.463650000000000091e+02,3.994610398212062137e+03
8.445810000000000173e+02,3.999747901109920349e+03
8.427970000000000255e+02,4.030690105581219541e+03
8.410119999999999436e+02,4.233901691697159549e+03
8.392269999999999754e+02,4.225057939803235058e+03
8.374410000000000309e+02,4.361843490365114121e+03
8.356549999999999727e+02,4.517873663311642304e+03
8.338690000000000282e+02,4.680008458642812911e+03
8.320819999999999936e+02,4.796212457388319308e+03
8.302949999999999591e+02,5.014721038890784257e+03
8.285069999999999482e+02,5.246918744530048571e+03
8.267190000000000509e+02,5.360160993276389490e+03
8.249310000000000400e+02,5.700047785129841941e+03
8.231420000000000528e+02,5.784643601967698487e+03
8.213529999999999518e+02,6.118203922240616521e+03
8.195629999999999882e+02,6.304393188131653005e+03
8.177730000000000246e+02,6.298346917763527017e+03
8.159819999999999709e+02,6.513229513602887891e+03
8.141910000000000309e+02,6.776856533466663677e+03
8.123999999999999773e+02,7.027507977354871400e+03
8.106079999999999472e+02,7.332788188131824427e+03
8.088160000000000309e+02,7.421172783194604563e+03
8.070230000000000246e+02,7.718986065646768111e+03
8.052300000000000182e+02,8.046243692623982497e+03
8.034370000000000118e+02,8.310325664126277843e+03
8.016430000000000291e+02,8.343036223588285793e+03
7.998479999999999563e+02,8.595855311318955501e+03
7.980539999999999736e+02,8.696134460368153668e+03
7.962590000000000146e+02,8.857402097880876681e+03
7.944629999999999654e+02,8.864098164132778038e+03
7.926670000000000300e+02,9.104918455494338559e+03
7.908709999999999809e+02,9.392982971965560864e+03
7.890739999999999554e+02,9.326375817579941213e+03
7.872770000000000437e+02,9.365272848454464111e+03
7.854790000000000418e+02,9.475378128750984615e+03
7.836810000000000400e+02,9.604347554435982602e+03
7.818819999999999482e+02,9.646005149777414772e+03
7.800839999999999463e+02,9.697042846297976212e+03
7.782839999999999918e+02,9.746752656944117916e+03
7.764840000000000373e+02,9.844506533168831083e+03
7.746839999999999691e+02,1.005300447497212372e+04
7.728840000000000146e+02,1.007036648235398025e+04
7.710829999999999700e+02,1.010807645981205860e+04
7.692809999999999491e+02,1.005749434742238009e+04
7.674790000000000418e+02,1.012795622071262551e+04
7.656770000000000209e+02,1.022828207968282368e+04
7.638750000000000000e+02,1.017829192433295248e+04
7.620710000000000264e+02,1.017939336376755091e+04
7.602680000000000291e+02,1.034237492435593595e+04
7.584640000000000555e+02,1.052750419518361741e+04
7.566599999999999682e+02,1.054125737170387947e+04
7.548550000000000182e+02,1.060493817843171928e+04
7.530499999999999545e+02,1.075194285082516944e+04
7.512440000000000282e+02,1.068071507335012575e+04
7.494379999999999882e+02,1.070007112149155728e+04
7.476309999999999718e+02,1.085143463964403054e+04
7.458250000000000455e+02,1.084637831898832519e+04
7.440170000000000528e+02,1.083475303258447821e+04
7.422100000000000364e+02,1.102500790737246280e+04
7.404009999999999536e+02,1.118289369613182498e+04
7.385929999999999609e+02,1.121873964608300594e+04
7.367839999999999918e+02,1.114405286557774161e+04
7.349740000000000464e+02,1.118937329442584814e+04
7.331639999999999873e+02,1.143245738847210305e+04
7.313540000000000418e+02,1.151026514771649090e+04
7.295430000000000064e+02,1.155468001594188172e+04
7.277319999999999709e+02,1.166973850920537734e+04
7.259210000000000491e+02,1.178746062750694182e+04
7.241090000000000373e+02,1.183762975436170382e+04
7.222960000000000491e+02,1.178432582947965057e+04
7.204840000000000373e+02,1.195744210594947072e+04
7.186699999999999591e+02,1.221436861366993617e+04
7.168569999999999709e+02,1.225585532274225625e+04
7.150430000000000064e+02,1.223448885943129426e+04
7.132279999999999518e+02,1.230002916338051728e+04
7.114130000000000109e+02,1.244425293150584184e+04
7.095979999999999563e+02,1.252016016380727160e+04
7.077820000000000391e+02,1.274997406271922591e+04
7.059660000000000082e+02,1.292183138553634126e+04
7.041490000000000009e+02,1.285975529439988532e+04
7.023319999999999936e+02,1.291434258687546753e+04
7.005140000000000100e+02,1.286523638478903740e+04
6.986970000000000027e+02,1.310931042433652692e+04
6.968780000000000427e+02,1.345809401050628367e+04
6.950589999999999691e+02,1.356262089963525432e+04
6.932400000000000091e+02,1.347549109172340832e+04
6.914210000000000491e+02,1.369342458677076866e+04
6.896000000000000227e+02,1.360722738634887355e+04
6.877799999999999727e+02,1.354711042756089228e+04
6.859589999999999463e+02,1.377703969177079125e+04
6.841380000000000337e+02,1.367933217819836136e+04
6.823160000000000309e+02,1.376121080683789478e+04
6.804940000000000282e+02,1.397419261729107529e+04
6.786710000000000491e+02,1.421620048912595666e+04
6.768479999999999563e+02,1.422501150234823945e+04
6.750240000000000009e+02,1.431442849607759854e+04
6.732010000000000218e+02,1.442430577185601942e+04
6.713759999999999764e+02,1.444079178635330391e+04
6.695510000000000446e+02,1.442902086131898977e+04
6.677259999999999991e+02,1.465091299675307891e+04
6.659009999999999536e+02,1.484422819265558064e+04
6.640739999999999554e+02,1.489571188438688114e+04
6.622480000000000473e+02,1.495803585816722989e+04
6.604210000000000491e+02,1.523058552908290949e+04
6.585940000000000509e+02,1.555855817945927265e+04
6.567659999999999627e+02,1.554279644591889155e+04
6.549379999999999882e+02,1.565311765130206186e+04
6.531090000000000373e+02,1.569754439167203600e+04
6.512799999999999727e+02,1.613587403040624849e+04
6.494500000000000455e+02,1.614468912298644136e+04
6.476200000000000045e+02,1.638628707334938372e+04
6.457899999999999636e+02,1.672688788149506581e+04
6.439589999999999463e+02,1.710591404200527541e+04
6.421280000000000427e+02,1.727968301969453751e+04
6.402960000000000491e+02,1.749515726851880027e+04
6.384640000000000555e+02,1.764479429389625147e+04
6.366319999999999482e+02,1.798341409582691631e+04
6.347989999999999782e+02,1.825509906730017974e+04
6.329650000000000318e+02,1.840746914732737059e+04
6.311309999999999718e+02,1.868496192258947849e+04
6.292970000000000255e+02,1.908741739308653632e+04
6.274619999999999891e+02,1.965703787043421107e+04
6.256269999999999527e+02,1.983106100232443350e+04
6.237920000000000300e+02,2.018992678875717684e+04
6.219560000000000173e+02,2.053425748028179805e+04
6.201190000000000282e+02,2.108727301580980929e+04
6.182820000000000391e+02,2.136701112442899466e+04
6.164450000000000500e+02,2.209919180613935168e+04
6.146069999999999709e+02,2.246345722998342535e+04
6.127690000000000055e+02,2.297282518615973459e+04
6.109299999999999500e+02,2.354777780292969328e+04
6.090910000000000082e+02,2.416081291125073039e+04
6.072519999999999527e+02,2.484447051112286499e+04
6.054120000000000346e+02,2.537649266960808018e+04
6.035720000000000027e+02,2.590143727884107648e+04
6.017309999999999945e+02,2.655468636505834365e+04
5.998899999999999864e+02,2.721085786119791373e+04
5.980480000000000018e+02,2.762919375264857445e+04
5.962060000000000173e+02,2.801233201317384373e+04
5.943630000000000564e+02,2.880341458729267470e+04
5.925199999999999818e+02,2.922873948961625501e+04
5.906770000000000209e+02,2.979942672014458731e+04
5.888329999999999700e+02,3.020179816206410396e+04
5.869890000000000327e+02,3.046029189129633232e+04
5.851440000000000055e+02,3.111090975011350019e+04
5.832989999999999782e+02,3.139806985532914405e+04
5.814529999999999745e+02,3.173849400827909994e+04
5.796069999999999709e+02,3.225726036669112364e+04
5.777609999999999673e+02,3.220604893056522997e+04
5.759139999999999873e+02,3.264514143980489825e+04
5.740660000000000309e+02,3.300155783295561559e+04
5.722179999999999609e+02,3.343079634962906857e+04
5.703700000000000045e+02,3.356227698982524453e+04
5.685209999999999582e+02,3.378192141145282221e+04
5.666720000000000255e+02,3.393112791560017649e+04
5.648229999999999791e+02,3.400507650226732949e+04
5.629729999999999563e+02,3.419904876783074724e+04
5.611219999999999573e+02,3.449996465073616127e+04
5.592709999999999582e+02,3.474862253408889228e+04
5.574199999999999591e+02,3.487774241788897780e+04
5.555679999999999836e+02,3.541048581638500036e+04
5.537160000000000082e+02,3.579157117425889010e+04
5.518630000000000564e+02,3.602297996466754557e+04
5.500099999999999909e+02,3.662043067336236709e+04
5.481570000000000391e+02,3.687790330034336512e+04
5.463029999999999973e+02,3.726883925710221956e+04
5.444479999999999791e+02,3.801985848195153812e+04
5.425940000000000509e+02,3.847605817249252868e+04
5.407380000000000564e+02,3.900302243975894817e+04
5.388819999999999482e+02,3.969946850190341502e+04
5.370259999999999536e+02,4.044031635892590566e+04
5.351699999999999591e+02,4.131888601082646346e+04
5.333129999999999882e+02,4.174263872502634331e+04
5.314550000000000409e+02,4.269971443973831629e+04
5.295969999999999800e+02,4.316789186694535601e+04
5.277390000000000327e+02,4.405231100664744736e+04
5.258799999999999955e+02,4.472063304382745991e+04
5.240199999999999818e+02,4.558497791663158569e+04
5.221609999999999445e+02,4.587026327573423623e+04
5.203010000000000446e+02,4.647371142921406135e+04
5.184400000000000546e+02,4.695438231518398970e+04
5.165789999999999509e+02,4.739257478990813979e+04
5.147169999999999845e+02,4.804150991456196061e+04
5.128550000000000182e+02,4.821100658667867538e+04
5.109929999999999950e+02,4.879818480625829397e+04
5.091299999999999955e+02,4.883218557251156017e+04
5.072669999999999959e+02,4.900542784491425846e+04
5.054030000000000200e+02,4.913623258134144999e+04
5.035389999999999873e+02,4.907225878258235025e+04
5.016739999999999782e+02,4.931510736515421013e+04
4.998090000000000259e+02,4.926693737118194986e+04
4.979429999999999836e+02,4.959404967580275843e+04
4.960769999999999982e+02,4.952470336249940010e+04
4.942110000000000127e+02,4.957403843127186701e+04
4.923439999999999941e+02,4.941157569515956857e+04
4.904769999999999754e+02,4.925663429972089943e+04
4.886089999999999804e+02,4.919149501657082874e+04
4.867409999999999854e+02,4.909825703266997880e+04
4.848720000000000141e+02,4.874396107818675227e+04
4.830029999999999859e+02,4.860434638150617684e+04
4.811329999999999814e+02,4.855443363132787636e+04
4.792629999999999768e+02,4.828398209748341469e+04
4.773929999999999723e+02,4.816143177997282328e+04
4.755219999999999914e+02,4.755954330526486592e+04
4.736499999999999773e+02,4.744905661110649089e+04
4.717789999999999964e+02,4.716763046533333545e+04
4.699060000000000059e+02,4.683804662277908210e+04
4.680339999999999918e+02,4.673956332861005649e+04
4.661600000000000250e+02,4.642042221305399289e+04
4.642869999999999777e+02,4.611740164588315383e+04
4.624130000000000109e+02,4.575984265158534981e+04
4.605380000000000109e+02,4.527768516780767095e+04
4.586630000000000109e+02,4.496240869268731331e+04
4.567880000000000109e+02,4.466729322622425389e+04
4.549119999999999777e+02,4.429605916630443244e+04
4.530350000000000250e+02,4.436608645050841733e+04
4.511589999999999918e+02,4.390667430389301444e+04
4.492810000000000059e+02,4.346966379521063209e+04
4.474039999999999964e+02,4.323249385570884624e+04
4.455249999999999773e+02,4.291568542920141772e+04
4.436469999999999914e+02,4.248933757187458104e+04
4.417679999999999723e+02,4.213581085044048086e+04
4.398879999999999768e+02,4.176366520237985969e+04
4.380079999999999814e+02,4.145226035474543460e+04
4.361279999999999859e+02,4.126173630753721227e+04
4.342470000000000141e+02,4.069891322944826970e+04
4.323659999999999854e+02,4.073567091007277486e+04
4.304839999999999804e+02,4.009648947636886442e+04
4.286019999999999754e+02,3.975190875964342558e+04
4.267189999999999941e+02,3.930182884509752330e+04
4.248360000000000127e+02,3.922158960577295511e+04
4.229519999999999982e+02,3.888631108509145270e+04
4.210679999999999836e+02,3.864987319785202271e+04
4.191829999999999927e+02,3.859243594567483524e+04
4.172980000000000018e+02,3.835781928513821185e+04
4.154130000000000109e+02,3.823866321624215925e+04
4.135269999999999868e+02,3.796634767787690362e+04
4.116410000000000196e+02,3.793539268932853884e+04
4.097540000000000191e+02,3.773401814764144365e+04
4.078670000000000186e+02,3.753810411392538663e+04
4.059789999999999850e+02,3.732137044335671089e+04
4.040910000000000082e+02,3.697467723889101035e+04
4.022019999999999982e+02,3.690594431381445611e+04
4.003129999999999882e+02,3.680333181295068061e+04
3.984230000000000018e+02,3.689821950767339149e+04
3.965330000000000155e+02,3.662450758469649008e+04
3.946429999999999723e+02,3.674313604401995690e+04
3.927520000000000095e+02,3.656696459412120021e+04
3.908600000000000136e+02,3.633349317208171124e+04
3.889689999999999941e+02,3.624100238194171106e+04
3.870760000000000218e+02,3.601095122322982206e+04
3.851829999999999927e+02,3.618380032094802300e+04
3.832900000000000205e+02,3.619760967509629700e+04
3.813960000000000150e+02,3.591545886820412852e+04
3.795020000000000095e+02,3.578678827574090974e+04
3.776080000000000041e+02,3.592735789770664996e+04
3.757119999999999891e+02,3.585764677309035324e+04
3.738170000000000073e+02,3.567689628037354123e+04
3.719209999999999923e+02,3.563388543750585814e+04
3.700240000000000009e+02,3.554113418140241265e+04
3.681270000000000095e+02,3.519984301359145320e+04
3.662300000000000182e+02,3.518495193407294573e+04
3.643319999999999936e+02,3.535238033612179424e+04
3.624340000000000259e+02,3.515204878437325533e+04
3.605350000000000250e+02,3.521463662999017833e+04
3.586360000000000241e+02,3.534272447969766654e+04
3.567359999999999900e+02,3.523841164252435556e+04
3.548360000000000127e+02,3.529829876730741671e+04
3.529350000000000023e+02,3.540342512091904064e+04
3.510339999999999918e+02,3.504011139433064818e+04
3.491320000000000050e+02,3.516603681223582680e+04
3.472300000000000182e+02,3.516128210776241031e+04
3.453279999999999745e+02,3.509026728091037512e+04
3.434250000000000114e+02,3.508397149307774089e+04
3.415210000000000150e+02,3.502305468094672688e+04
3.396170000000000186e+02,3.498343766201341350e+04
3.377130000000000223e+02,3.502814043627776118e+04
3.358079999999999927e+02,3.481186208065865503e+04
3.339030000000000200e+02,3.490618347599208937e+04
3.319970000000000141e+02,3.494170365692964697e+04
3.300910000000000082e+02,3.484604354655242059e+04
3.281840000000000259e+02,3.503262213722252636e+04
3.262769999999999868e+02,3.511084039428835968e+04
3.243690000000000282e+02,3.505587726780034427e+04
3.224610000000000127e+02,3.513695376539640711e+04
3.205520000000000209e+02,3.516692879479307157e+04
3.186429999999999723e+02,3.494594340593997913e+04
3.167339999999999804e+02,3.516521759883710911e+04
3.148240000000000123e+02,3.497975021767248836e+04
3.129130000000000109e+02,3.494432119889542810e+04
3.110020000000000095e+02,3.501383167713435250e+04
3.090910000000000082e+02,3.507464165238924033e+04
3.071789999999999736e+02,3.502146988405841694e+04
3.052669999999999959e+02,3.486055757034316775e+04
3.033539999999999850e+02,3.490604342821922910e+04
3.014399999999999977e+02,3.482526739403611282e+04
2.995269999999999868e+02,3.472491205508132407e+04
2.976120000000000232e+02,3.486103343491454143e+04
2.956979999999999791e+02,3.460403550997610728e+04
2.937819999999999823e+02,3.458769417642484041e+04
2.918670000000000186e+02,3.453187353810189961e+04
2.899510000000000218e+02,3.453329079538506630e+04
2.880339999999999918e+02,3.431428588452398253e+04
2.861170000000000186e+02,3.408598021594374586e+04
2.841990000000000123e+02,3.429039229417446768e+04
2.822810000000000059e+02,3.419594357215256605e+04
2.803629999999999995e+02,3.438977404987801128e+04
2.784440000000000168e+02,3.426388216805297998e+04
2.765240000000000009e+02,3.427740786282729096e+04
2.746039999999999850e+02,3.390367267221545626e+04
2.726840000000000259e+02,3.395995659621746745e+04
2.707629999999999768e+02,3.389857799034647906e+04
2.688419999999999845e+02,3.386535845648929535e+04
2.669200000000000159e+02,3.386363630753685720e+04
2.649970000000000141e+02,3.368169147953920765e+04
2.630749999999999886e+02,3.364824736805330031e+04
2.611510000000000105e+02,3.397683878378549707e+04
2.592269999999999754e+02,3.353766914359829389e+04
2.573029999999999973e+02,3.364855844749171229e+04
2.553789999999999907e+02,3.362848669546574092e+04
2.534530000000000030e+02,3.391493021459184820e+04
2.515279999999999916e+02,3.389271445022968692e+04
2.496009999999999991e+02,3.400893382888678025e+04
2.476750000000000114e+02,3.397583392405559425e+04
2.457479999999999905e+02,3.421027095598035521e+04
2.438199999999999932e+02,3.407392486054473557e+04
2.418919999999999959e+02,3.427297753830158035e+04
2.399629999999999939e+02,3.428294700316523085e+04
2.380339999999999918e+02,3.449429519844387687e+04
2.361049999999999898e+02,3.464750212413750705e+04
2.341750000000000114e+02,3.468508572996650037e+04
2.322439999999999998e+02,3.474910595171472232e+04
2.303129999999999882e+02,3.494410481825639727e+04
2.283820000000000050e+02,3.472246232959153713e+04
2.264499999999999886e+02,3.487549634976355446e+04
2.245180000000000007e+02,3.501956897188498988e+04
2.225850000000000080e+02,3.514863801713303110e+04
2.206510000000000105e+02,3.518562342119175446e+04
2.187179999999999893e+02,3.513770956316756929e+04
2.167829999999999870e+02,3.522168977789361816e+04
2.148480000000000132e+02,3.516196846590389760e+04
2.129130000000000109e+02,3.527766562719841022e+04
2.109770000000000039e+02,3.518541895421152003e+04
2.090409999999999968e+02,3.537157071157610335e+04
2.071040000000000134e+02,3.530029854877158505e+04
2.051670000000000016e+02,3.520008477336359647e+04
2.032290000000000134e+02,3.519830699185442063e+04
2.012909999999999968e+02,3.535412755476466555e+04
1.993520000000000039e+02,3.539280402559731010e+04
1.974130000000000109e+02,3.535665879785004654e+04
1.954730000000000132e+02,3.532984939200438384e+04
1.935329999999999870e+02,3.541357824455733498e+04
1.915929999999999893e+02,3.532572535550891189e+04
1.896510000000000105e+02,3.547052563669107622e+04
1.877100000000000080e+02,3.548670665579037450e+04
1.857680000000000007e+02,3.568748330308918958e+04
1.838249999999999886e+02,3.575773551397215488e+04
1.818820000000000050e+02,3.571726585405616788e+04
1.799379999999999882e+02,3.583039167152606387e+04
1.779939999999999998e+02,3.601553557508680387e+04
1.760500000000000114e+02,3.618637756473839545e+04
1.741049999999999898e+02,3.627669492397260183e+04
1.721589999999999918e+02,3.650786758807419392e+04
1.702129999999999939e+02,3.659423825197965198e+04
1.682659999999999911e+02,3.681388413442116871e+04
1.663189999999999884e+02,3.693814797348978755e+04
1.643720000000000141e+02,3.705000976918551169e+04
1.624240000000000066e+02,3.734204667544765834e+04
1.604749999999999943e+02,3.746149862746117287e+04
1.585260000000000105e+02,3.772430844968173915e+04
1.565769999999999982e+02,3.790023614210934466e+04
1.546270000000000095e+02,3.805947877220778901e+04
1.526759999999999877e+02,3.824889627509546699e+04
1.507249999999999943e+02,3.820111156168140587e+04
1.487740000000000009e+02,3.852054463196558936e+04
1.468220000000000027e+02,3.863389246684758109e+04
1.448700000000000045e+02,3.857353804214014235e+04
1.429170000000000016e+02,3.854113829543297470e+04
1.409629999999999939e+02,3.928429316174469568e+04
1.390089999999999861e+02,3.958646568182509509e+04
1.370550000000000068e+02,3.939701585567420261e+04
1.350999999999999943e+02,3.950080053418436728e+04
1.331440000000000055e+02,3.930585965230763395e+04
1.311879999999999882e+02,3.956501633746899461e+04
1.292319999999999993e+02,3.955829058966843877e+04
1.272750000000000057e+02,3.955895917301227018e+04
1.253179999999999978e+02,3.977058527999560465e+04
1.233599999999999994e+02,4.002606563130399445e+04
1.214009999999999962e+02,3.960772016178964259e+04
1.194419999999999931e+02,3.943715212905113003e+04
1.174830000000000041e+02,3.956520153308840963e+04
1.155229999999999961e+02,3.909110500766788755e+04
1.135630000000000024e+02,3.865706587555805163e+04
1.116020000000000039e+02,3.820544072703798156e+04
1.096400000000000006e+02,3.890168949686009000e+04
1.076779999999999973e+02,3.923513557299608510e+04
1.057159999999999940e+02,3.907031895544599683e+04
1.037530000000000001e+02,3.795223614743661892e+04
1.017900000000000063e+02,3.797143060220948246e+04
9.982569999999999766e+01,3.843568971733728540e+04
9.786119999999999663e+01,3.895773332619843131e+04
9.589629999999999654e+01,3.950848869893705705e+04
9.393080000000000496e+01,4.071870308825934626e+04
9.196490000000000009e+01,4.146584918043095240e+04
8.999840000000000373e+01,4.130241421942197485e+04
8.803149999999999409e+01,4.074983090020305826e+04
8.606399999999999295e+01,4.130074645800385042e+04
8.409610000000000696e+01,4.163491359650440427e+04
8.212760000000000105e+01,4.057569954218944622e+04
8.015860000000000696e+01,3.880958063160684105e+04
7.818909999999999627e+01,3.821421683199972904e+04
7.621909999999999741e+01,3.821460811060287961e+04
7.424869999999999948e+01,3.800233081704355573e+04
7.227760000000000673e+01,3.628741577133760438e+04
7.030610000000000070e+01,3.255767208789717188e+04
6.833410000000000650e+01,2.669474335152301137e+04
6.636159999999999570e+01,1.952454952940831936e+04
6.438859999999999673e+01,1.244605058873800408e+04
6.241499999999999915e+01,6.939646101163354615e+03
6.044100000000000250e+01,3.267122822713805817e+03
5.846640000000000015e+01,9.036339273082135151e+02
