1.838309999999999945e+03,-5.156920081218122505e+02
1.836750000000000000e+03,-3.516017413500230759e+01
1.835180000000000064e+03,-6.853879347094334662e+01
1.833609999999999900e+03,2.024359475307719549e+02
1.832049999999999955e+03,1.756285401672794251e+02
1.830480000000000018e+03,1.974501715236547170e+02
1.828910000000000082e+03,9.656516321767412592e+01
1.827339999999999918e+03,3.052135152493574424e+02
1.825779999999999973e+03,1.431403965525532840e+02
1.824210000000000036e+03,5.587563893890182953e+01
1.822640000000000100e+03,-9.421575833714450710e+01
1.821069999999999936e+03,2.268662047245161375e+02
1.819500000000000000e+03,2.829415281237888848e+02
1.817930000000000064e+03,2.269502118607051671e+02
1.816359999999999900e+03,2.436322559352847748e+02
1.814789999999999964e+03,2.530276603474776493e+02
1.813220000000000027e+03,2.253564250973286107e+02
1.811650000000000091e+03,2.571985501848248532e+02
1.810079999999999927e+03,8.989403560997743625e+01
1.808500000000000000e+03,2.403158459657133790e+02
1.806930000000000064e+03,1.774378823867591564e+02
1.805359999999999900e+03,1.566132791454729158e+02
1.803789999999999964e+03,-1.587979637582029682e+02
1.802210000000000036e+03,-7.224356152953987475e+01
1.800640000000000100e+03,1.846317465627362253e+02
1.799069999999999936e+03,1.087604149926482933e+02
1.797490000000000009e+03,5.219421843596501276e+01
1.795920000000000073e+03,-3.818705621382250683e+02
1.794339999999999918e+03,-1.579105481385049643e+02
1.792769999999999982e+03,-1.938877771678380668e+01
1.791190000000000055e+03,-3.453625531606667209e+02
1.789619999999999891e+03,-6.561423174302035477e+01
1.788039999999999964e+03,-2.826217966304975562e+02
1.786470000000000027e+03,5.821307578304549679e+01
1.784890000000000100e+03,-1.920282785480521852e+02
1.783309999999999945e+03,-1.792966129810229177e+02
1.781740000000000009e+03,1.276980010867264355e+02
1.780160000000000082e+03,5.580958772101439536e+02
1.778579999999999927e+03,4.115867732317128684e+02
1.777000000000000000e+03,3.829906891514110612e+02
1.775430000000000064e+03,6.547582355315826135e+02
1.773849999999999909e+03,7.037083620076882653e+02
1.772269999999999982e+03,1.088911508381876047e+03
1.770690000000000055e+03,8.876676746542216279e+02
1.769109999999999900e+03,9.928568608247005614e+02
1.767529999999999973e+03,8.730390668932959670e+02
1.765950000000000045e+03,9.284942928600212326e+02
1.764369999999999891e+03,9.944225387248588959e+02
1.762789999999999964e+03,7.253438044878712390e+02
1.761210000000000036e+03,1.120438090148978517e+03
1.759619999999999891e+03,5.779930775444663595e+02
1.758039999999999964e+03,5.237732322417141404e+02
1.756460000000000036e+03,4.572864068370545283e+02
1.754880000000000109e+03,6.672526013305468950e+02
1.753289999999999964e+03,4.083388134371052729e+02
1.751710000000000036e+03,1.757908769667410525e+02
1.750130000000000109e+03,4.279596039444732014e+01
1.748539999999999964e+03,3.354054807408829220e+01
1.746960000000000036e+03,1.300915005379501963e+02
1.745369999999999891e+03,-1.981983853473357158e+02
1.743789999999999964e+03,-3.483815638473606668e+02
1.742200000000000045e+03,-4.846659232975798659e+02
1.740619999999999891e+03,-7.712432327614806127e+02
1.739029999999999973e+03,-8.068620657766005024e+02
1.737450000000000045e+03,-8.259335062043828657e+02
1.735859999999999900e+03,-9.320668127844255650e+02
1.734269999999999982e+03,-9.660474420673708664e+02
1.732690000000000055e+03,-8.436601643210742623e+02
1.731099999999999909e+03,-1.261835267168920836e+03
1.729509999999999991e+03,-1.072137692719697952e+03
1.727920000000000073e+03,-1.065427440973406192e+03
1.726329999999999927e+03,-8.031045119299960788e+02
1.724750000000000000e+03,-7.988928177335765213e+02
1.723160000000000082e+03,-7.761843622550804866e+02
1.721569999999999936e+03,-4.757432294794998597e+02
1.719980000000000018e+03,-6.559494194068247452e+02
1.718390000000000100e+03,-7.656829320370889036e+02
1.716799999999999955e+03,-6.389237673702300526e+02
1.715210000000000036e+03,-5.358519254062703112e+02
1.713609999999999900e+03,-6.767046968874492450e+02
1.712019999999999982e+03,-7.115476721702289069e+02
1.710430000000000064e+03,-6.810379701559286332e+02
1.708839999999999918e+03,-3.368355908444791567e+02
1.707250000000000000e+03,-4.766005342360003851e+02
1.705650000000000091e+03,-6.967509513578552287e+02
1.704059999999999945e+03,-2.275307119960634736e+02
1.702470000000000027e+03,-7.445779533720633481e+01
1.700869999999999891e+03,-2.631086901215894613e+01
1.699279999999999973e+03,-8.853276959998765960e+01
1.697690000000000055e+03,4.087800710927695036e+01
1.696089999999999918e+03,1.955422768812422873e+02
1.694500000000000000e+03,-3.530176365622901358e+01
1.692900000000000091e+03,-2.863265589352522511e+01
1.691299999999999955e+03,1.993087844037072500e+02
1.689710000000000036e+03,3.006424320756923407e+02
1.688109999999999900e+03,3.389287103636743268e+02
1.686509999999999991e+03,4.880073211861454183e+02
1.684920000000000073e+03,5.165786570676427800e+02
1.683319999999999936e+03,1.334821058808738599e+02
1.681720000000000027e+03,5.767178872286167461e+02
1.680119999999999891e+03,8.144860011108830804e+02
1.678529999999999973e+03,7.259675306580611505e+02
1.676930000000000064e+03,1.054340482531057205e+03
1.675329999999999927e+03,5.792857669385994086e+02
1.673730000000000018e+03,4.939033838806644781e+02
1.672130000000000109e+03,9.105733333572861739e+02
1.670529999999999973e+03,5.942756153684458695e+02
1.668930000000000064e+03,6.654902299140812829e+02
1.667329999999999927e+03,8.144571769943286199e+02
1.665730000000000018e+03,7.894364566090516746e+02
1.664130000000000109e+03,8.658880687583150575e+02
1.662519999999999982e+03,9.600292010952107375e+02
1.660920000000000073e+03,7.246653053918998921e+02
1.659319999999999936e+03,8.356937422230985248e+02
1.657720000000000027e+03,5.751145115888502914e+02
1.656109999999999900e+03,4.659241083747911034e+02
1.654509999999999991e+03,4.584293698879773729e+02
1.652910000000000082e+03,3.443469639356626431e+02
1.651299999999999955e+03,2.196528655578003963e+02
1.649700000000000045e+03,9.041495175291493069e+01
1.648089999999999918e+03,1.963649985984084196e+02
1.646490000000000009e+03,1.615715769408998312e+02
1.644880000000000109e+03,1.578457690097129671e+02
1.643279999999999973e+03,-1.886231605003704317e+02
1.641670000000000073e+03,1.342951767917693360e+02
1.640059999999999945e+03,4.944454996943532024e+02
1.638460000000000036e+03,2.592532219445711235e+02
1.636849999999999909e+03,1.906769007048569620e+01
1.635240000000000009e+03,-3.441858561931148870e+02
1.633630000000000109e+03,-1.167274168463045498e+02
1.632029999999999973e+03,-2.940908832229470136e+02
1.630420000000000073e+03,-2.734882986527954927e+02
1.628809999999999945e+03,-1.017937284721701872e+02
1.627200000000000045e+03,-7.471726810908876359e-01
1.625589999999999918e+03,-8.176863127954129595e+01
1.623980000000000018e+03,-1.111581042675679782e+02
1.622369999999999891e+03,-2.604555916451208759e+02
1.620759999999999991e+03,-2.678010934122576145e+02
1.619150000000000091e+03,-9.318946095688879723e+02
1.617539999999999964e+03,-7.404761401150899474e+02
1.615930000000000064e+03,-6.561856850508484058e+02
1.614309999999999945e+03,-5.955312670688144863e+02
1.612700000000000045e+03,-9.836370147860579891e+02
1.611089999999999918e+03,-7.557507768928626319e+02
1.609480000000000018e+03,-8.218525533892097883e+02
1.607859999999999900e+03,-1.101251064058204065e+03
1.606250000000000000e+03,-1.099409043336054310e+03
1.604640000000000100e+03,-1.199455037003484904e+03
1.603019999999999982e+03,-1.376678287931543309e+03
1.601410000000000082e+03,-1.148100484380454873e+03
1.599789999999999964e+03,-1.243480287175625563e+03
1.598180000000000064e+03,-8.466586864060664084e+02
1.596559999999999945e+03,-6.910950410683581140e+02
1.594940000000000055e+03,-6.977397592057823204e+02
1.593329999999999927e+03,-1.081062549609690905e+03
1.591710000000000036e+03,-9.413438196142524248e+02
1.590089999999999918e+03,-9.405334530939435354e+02
1.588480000000000018e+03,-8.617206346713210223e+02
1.586859999999999900e+03,-1.221926820018110448e+03
1.585240000000000009e+03,-9.259213688400777755e+02
1.583619999999999891e+03,-8.911042811371735297e+02
1.582000000000000000e+03,-1.030815556909423321e+03
1.580380000000000109e+03,-1.007395196156809106e+03
1.578759999999999991e+03,-9.806231988793297205e+02
1.577150000000000091e+03,-6.978875251980352914e+02
1.575519999999999982e+03,-4.650642947498272406e+02
1.573900000000000091e+03,-5.383773878977954155e+02
1.572279999999999973e+03,-4.774988445209019119e+02
1.570660000000000082e+03,-4.572686646191577893e+02
1.569039999999999964e+03,-6.255068481925700326e+02
1.567420000000000073e+03,-2.918133952411008067e+02
1.565799999999999955e+03,-4.063683057648013346e+02
1.564170000000000073e+03,-3.924250213887862628e+02
1.562549999999999955e+03,-4.132768339459580602e+02
1.560930000000000064e+03,-2.637770099782501347e+02
1.559299999999999955e+03,-6.879951744117715862e+01
1.557680000000000064e+03,2.453034044930536766e+02
1.556059999999999945e+03,5.807979629521432798e+02
1.554430000000000064e+03,5.314096636502945330e+02
1.552809999999999945e+03,1.768873200759262545e+02
1.551180000000000064e+03,3.008017674934962997e+02
1.549549999999999955e+03,1.330875001888052793e+02
1.547930000000000064e+03,1.355997160226397682e+02
1.546299999999999955e+03,5.481954373535700142e-01
1.544680000000000064e+03,1.968350923770049121e+01
1.543049999999999955e+03,1.616347353718592785e+02
1.541420000000000073e+03,1.084372467837092699e+02
1.539789999999999964e+03,3.007104347330459859e+01
1.538170000000000073e+03,4.072323781235463684e+02
1.536539999999999964e+03,3.534489215325593250e+02
1.534910000000000082e+03,5.555967502192943357e+02
1.533279999999999973e+03,5.723558641838026233e+02
1.531650000000000091e+03,5.516662634260137565e+02
1.530019999999999982e+03,5.610679479459649883e+02
1.528390000000000100e+03,5.477609177436534083e+02
1.526759999999999991e+03,6.828851728190929862e+02
1.525130000000000109e+03,6.573007131722406484e+02
1.523500000000000000e+03,7.956875388031330658e+02
1.521859999999999900e+03,7.639076353894633939e+02
1.520230000000000018e+03,8.424368554118846077e+02
1.518599999999999909e+03,6.373773607120529050e+02
1.516970000000000027e+03,7.275891512899397640e+02
1.515329999999999927e+03,8.902535070867743343e+02
1.513700000000000045e+03,6.492076920561812585e+02
1.512069999999999936e+03,7.384131623033463256e+02
1.510430000000000064e+03,4.558106681968201883e+02
1.508799999999999955e+03,6.298185328355320962e+02
1.507160000000000082e+03,8.060780797119077761e+02
1.505529999999999973e+03,6.270683387421449879e+02
1.503890000000000100e+03,5.024499266014026944e+02
1.502259999999999991e+03,6.218625800231675385e+02
1.500619999999999891e+03,3.207062088653183309e+02
1.498980000000000018e+03,-1.909923042342416011e+01
1.497349999999999909e+03,6.372692650365934242e+01
1.495710000000000036e+03,1.424435281977930572e+02
1.494069999999999936e+03,1.344510617610503687e+02
1.492430000000000064e+03,1.673695271933829645e+02
1.490789999999999964e+03,1.883589244948088890e+02
1.489160000000000082e+03,1.792008031547884457e+02
1.487519999999999982e+03,2.215522414391016355e+02
1.485880000000000109e+03,2.367346115925174672e+02
1.484240000000000009e+03,1.073479136150126578e+02
1.482599999999999909e+03,-2.107852493369136937e+00
1.480960000000000036e+03,4.181673132673167856e+02
1.479319999999999936e+03,-2.528865891028981423e+02
1.477670000000000073e+03,-3.272523498063819716e+02
1.476029999999999973e+03,2.975434316904284060e+00
1.474390000000000100e+03,-2.366858496907370863e+02
1.472750000000000000e+03,-2.415162018292467110e+02
1.471109999999999900e+03,-2.734156220987060806e+02
1.469460000000000036e+03,-3.078077880056953290e+02
1.467819999999999936e+03,-5.374455217816284858e+02
1.466180000000000064e+03,-4.767723236884921789e+02
1.464529999999999973e+03,-6.455524040477466770e+02
1.462890000000000100e+03,-6.596575194611505140e+02
1.461240000000000009e+03,-6.251962688970670570e+02
1.459599999999999909e+03,-7.572796978169499198e+02
1.457950000000000045e+03,-7.994171163295541191e+02
1.456309999999999945e+03,-6.886388587559631560e+02
1.454660000000000082e+03,-4.066949463452328928e+02
1.453009999999999991e+03,-5.196004576355771860e+02
1.451369999999999891e+03,-2.929697589441057062e+02
1.449720000000000027e+03,-3.396939393111388199e+02
1.448069999999999936e+03,-2.777875433792214608e+02
1.446420000000000073e+03,-2.947305711483932100e+02
1.444769999999999982e+03,-3.286630226186098298e+02
1.443119999999999891e+03,-1.758048977899161400e+02
1.441480000000000018e+03,-1.569094941073417431e+02
1.439829999999999927e+03,5.252996164467185736e+01
1.438180000000000064e+03,-2.705400063043562113e+02
1.436529999999999973e+03,-1.593193979544594185e+02
1.434880000000000109e+03,-4.662821330564474920e+01
1.433220000000000027e+03,3.326595345991518116e+01
1.431569999999999936e+03,6.878112381142273080e+00
1.429920000000000073e+03,-2.519152398694131989e+00
1.428269999999999982e+03,9.827415912041033152e+01
1.426619999999999891e+03,-3.188195306154375430e+01
1.424960000000000036e+03,1.882840241651210818e+02
1.423309999999999945e+03,8.058888625555118779e+01
1.421660000000000082e+03,3.959243246449186699e+02
1.420000000000000000e+03,4.260213163858061307e+02
1.418349999999999909e+03,4.107977290475755581e+02
1.416700000000000045e+03,3.554247180082747946e+02
1.415039999999999964e+03,4.537727242633627611e+02
1.413380000000000109e+03,5.442309490856641787e+02
1.411730000000000018e+03,3.514693102922610706e+02
1.410069999999999936e+03,2.734481516552914400e+02
1.408420000000000073e+03,7.266748713427659823e+01
1.406759999999999991e+03,2.280269450380365015e+02
1.405099999999999909e+03,2.430166215090575861e+02
1.403450000000000045e+03,3.757273292339014006e+02
1.401789999999999964e+03,4.229376222456630785e+02
1.400130000000000109e+03,4.671381338246283121e+02
1.398470000000000027e+03,4.052088639708672417e+02
1.396809999999999945e+03,4.457498126843711361e+02
1.395150000000000091e+03,4.377809799650858622e+02
1.393490000000000009e+03,6.145023658130667172e+02
1.391829999999999927e+03,6.519739702283040970e+02
1.390170000000000073e+03,7.355357932107945089e+02
1.388509999999999991e+03,5.682678347605324234e+02
1.386849999999999909e+03,2.668100948775245342e+02
1.385190000000000055e+03,5.041825735617530881e+02
1.383529999999999973e+03,8.040052708132425323e+02
1.381859999999999900e+03,5.312450416645151563e+02
1.380200000000000045e+03,6.228279966442714795e+02
1.378539999999999964e+03,6.813211701912878198e+02
1.376880000000000109e+03,4.996045623055470060e+02
1.375210000000000036e+03,3.789243093139521079e+02
1.373549999999999955e+03,3.589879591564967996e+02
1.371880000000000109e+03,3.732676039999569184e+02
1.370220000000000027e+03,6.171511570792063139e+00
1.368549999999999955e+03,2.301310542493447429e+02
1.366890000000000100e+03,3.663752195484412368e+02
1.365220000000000027e+03,3.064946600620678510e+02
1.363559999999999945e+03,3.964790830894489773e+02
1.361890000000000100e+03,2.472184214381413767e+02
1.360220000000000027e+03,2.195476184608851327e+02
1.358549999999999955e+03,4.041666741576846107e+02
1.356890000000000100e+03,1.345143323540833080e+01
1.355220000000000027e+03,1.878303867672802880e+02
1.353549999999999955e+03,3.193919897319574375e+01
1.351880000000000109e+03,5.977786985315469792e+01
1.350210000000000036e+03,1.412263994071618072e+02
1.348539999999999964e+03,-2.026552123647779808e+02
1.346869999999999891e+03,2.557730345373274758e+02
1.345200000000000045e+03,1.499114011346682673e+01
1.343529999999999973e+03,-1.134089563633460784e+01
1.341859999999999900e+03,-7.778307271208177553e+01
1.340190000000000055e+03,1.034646088862064062e+02
1.338519999999999982e+03,-1.513578508414357202e+02
1.336849999999999909e+03,-5.985045189507218311e+01
1.335170000000000073e+03,-4.557138531227974454e+01
1.333500000000000000e+03,6.115555049522663467e+01
1.331829999999999927e+03,-3.736476550232182490e+02
1.330150000000000091e+03,-2.890797354469759739e+02
1.328480000000000018e+03,-4.234234041043309844e+02
1.326799999999999955e+03,-5.849363097216773895e+02
1.325130000000000109e+03,-7.442404415179262287e+02
1.323450000000000045e+03,-4.919141723289067158e+02
1.321779999999999973e+03,-4.741787672640202800e+02
1.320099999999999909e+03,-5.731733232685946859e+02
1.318430000000000064e+03,-2.571583813426113920e+02
1.316750000000000000e+03,-3.287337625408035819e+02
1.315069999999999936e+03,-2.040996471196776838e+02
1.313400000000000091e+03,-1.187554901455150684e+02
1.311720000000000027e+03,-2.368219991801015567e+01
1.310039999999999964e+03,-2.319994130711711477e+02
1.308359999999999900e+03,-3.514671296050073579e+02
1.306680000000000064e+03,-5.372253495195400319e+02
1.305000000000000000e+03,-2.200540728147170739e+02
1.303319999999999936e+03,-3.024732994906007661e+02
1.301640000000000100e+03,-2.771430295471509453e+02
1.299960000000000036e+03,-2.190832629843716859e+02
1.298279999999999973e+03,-1.970539998022795771e+02
1.296599999999999909e+03,-2.665952400008536642e+02
1.294920000000000073e+03,-1.152069835801303270e+02
1.293240000000000009e+03,-1.716692305400647456e+02
1.291559999999999945e+03,-3.732198088065342745e+01
1.289869999999999891e+03,-1.194083214840575238e+02
1.288190000000000055e+03,-1.265022601537712035e+02
1.286509999999999991e+03,-2.429067022041635937e+02
1.284819999999999936e+03,-2.598652803013173980e+02
1.283140000000000100e+03,-2.476109106808071374e+02
1.281450000000000045e+03,-6.301104132330510765e+01
1.279769999999999982e+03,-7.189786003188055474e+01
1.278079999999999927e+03,-1.268595432197180344e+02
1.276400000000000091e+03,-1.282475502573943231e+02
1.274710000000000036e+03,-7.075078599058906548e+01
1.273029999999999973e+03,3.510001864265359472e+01
1.271339999999999918e+03,1.589552303641394246e+02
1.269650000000000091e+03,3.124195744886819739e+02
1.267960000000000036e+03,2.156930510163001600e+02
1.266279999999999973e+03,2.648812974236134323e+02
1.264589999999999918e+03,8.675322140590287745e+01
1.262900000000000091e+03,3.069942777912583551e+02
1.261210000000000036e+03,4.214644665797241032e+02
1.259519999999999982e+03,3.464837877712488989e+02
1.257829999999999927e+03,3.226722413658644655e+02
1.256140000000000100e+03,3.172498273635283113e+02
1.254450000000000045e+03,3.156965457642945694e+02
1.252759999999999991e+03,1.429323965681396658e+02
1.251069999999999936e+03,2.820973797750630183e+02
1.249380000000000109e+03,4.838914953850471647e+02
1.247680000000000064e+03,2.957670967880039825e+02
1.245990000000000009e+03,3.928992945556528866e+02
1.244299999999999955e+03,4.666406247264021658e+02
1.242609999999999900e+03,6.685310873002163135e+02
1.240910000000000082e+03,5.921223039922188036e+02
1.239220000000000027e+03,6.164908487236680230e+02
1.237519999999999982e+03,7.788597811955696670e+02
1.235829999999999927e+03,7.096664080846894649e+02
1.234130000000000109e+03,6.873330563364579575e+02
1.232440000000000055e+03,6.730377653832401847e+02
1.230740000000000009e+03,8.167221294149057940e+02
1.229049999999999955e+03,6.178649206193440477e+02
1.227349999999999909e+03,6.156270004308971693e+02
1.225650000000000091e+03,7.936778462677539210e+02
1.223960000000000036e+03,7.776476693844306283e+02
1.222259999999999991e+03,6.752162310011844966e+02
1.220559999999999945e+03,9.347135586432632408e+02
1.218859999999999900e+03,9.020796523106546374e+02
1.217160000000000082e+03,9.886745120033447165e+02
1.215460000000000036e+03,1.147898137721349485e+03
1.213759999999999991e+03,1.064050529464686406e+03
1.212059999999999945e+03,1.169071687233328703e+03
1.210359999999999900e+03,1.216441611027294130e+03
1.208660000000000082e+03,1.364620300846538157e+03
1.206960000000000036e+03,1.536207756691117538e+03
1.205259999999999991e+03,1.428583978561015101e+03
1.203559999999999945e+03,1.426528966456222406e+03
1.201859999999999900e+03,1.526902720376740035e+03
1.200150000000000091e+03,1.595172456858410442e+03
1.198450000000000045e+03,1.604523559100300190e+03
1.196750000000000000e+03,1.694563427367487748e+03
1.195039999999999964e+03,1.771558725927301566e+03
1.193339999999999918e+03,1.974495942515874049e+03
1.191630000000000109e+03,1.937008220857744163e+03
1.189930000000000064e+03,2.308722785767662572e+03
1.188220000000000027e+03,2.385532043891638750e+03
1.186519999999999982e+03,2.519863957122914144e+03
1.184809999999999945e+03,2.620910195028947783e+03
1.183099999999999909e+03,2.924384830421033257e+03
1.181400000000000091e+03,2.780802674269718409e+03
1.179690000000000055e+03,2.772514289443854068e+03
1.177980000000000018e+03,3.173534302104017115e+03
1.176269999999999982e+03,3.444722712250237237e+03
1.174569999999999936e+03,3.333375069012414315e+03
1.172859999999999900e+03,3.446960458940673561e+03
1.171150000000000091e+03,3.612594246354950883e+03
1.169440000000000055e+03,3.550896431255299831e+03
1.167730000000000018e+03,3.678727013641655503e+03
1.166019999999999982e+03,3.926345993514034490e+03
1.164309999999999945e+03,4.055473370872437954e+03
1.162599999999999909e+03,4.288309145716892090e+03
1.160880000000000109e+03,4.465436290437202842e+03
1.159170000000000073e+03,4.632328675443677639e+03
1.157460000000000036e+03,4.935229457936184190e+03
1.155750000000000000e+03,5.212898637914695428e+03
1.154029999999999973e+03,5.120878447448267252e+03
1.152319999999999936e+03,5.132564237588820106e+03
1.150609999999999900e+03,5.472138425215416646e+03
1.148890000000000100e+03,5.486282686886188458e+03
1.147180000000000064e+03,5.480633484674799547e+03
1.145460000000000036e+03,5.786313985806838900e+03
1.143750000000000000e+03,5.859621393757464830e+03
1.142029999999999973e+03,6.178198134350728651e+03
1.140319999999999936e+03,6.128742152463390084e+03
1.138599999999999909e+03,6.499515132517866732e+03
1.136880000000000109e+03,6.572256139357530628e+03
1.135160000000000082e+03,6.942505172982440854e+03
1.133450000000000045e+03,7.160682226609162171e+03
1.131730000000000018e+03,7.247787499695295992e+03
1.130009999999999991e+03,7.396780799566658970e+03
1.128289999999999964e+03,7.607422126223231317e+03
1.126569999999999936e+03,7.788871479665023799e+03
1.124849999999999909e+03,7.903948859892043401e+03
1.123130000000000109e+03,7.949794266904274991e+03
1.121410000000000082e+03,7.986887700701736321e+03
1.119690000000000055e+03,8.228809161284407310e+03
1.117970000000000027e+03,8.356178648652305128e+03
1.116250000000000000e+03,8.659436162805424829e+03
1.114529999999999973e+03,9.025081703743751859e+03
1.112799999999999955e+03,9.049313047561321582e+03
1.111079999999999927e+03,9.266334456179327390e+03
1.109359999999999900e+03,9.467343891582539072e+03
1.107630000000000109e+03,9.570678571111864585e+03
1.105910000000000082e+03,9.826603874194734090e+03
1.104190000000000055e+03,9.950217204062821111e+03
1.102460000000000036e+03,1.024325521930393734e+04
1.100740000000000009e+03,1.029310441685167461e+04
1.099009999999999991e+03,1.029675792691011884e+04
1.097279999999999973e+03,1.044755909089146007e+04
1.095559999999999945e+03,1.050775199701329257e+04
1.093829999999999927e+03,1.085394865581194608e+04
1.092099999999999909e+03,1.083113296853350039e+04
1.090380000000000109e+03,1.070536958322941791e+04
1.088650000000000091e+03,1.103330939076829964e+04
1.086920000000000073e+03,1.138685685223006294e+04
1.085190000000000055e+03,1.157105196761474508e+04
1.083460000000000036e+03,1.197435473692230153e+04
1.081730000000000018e+03,1.203430516015274043e+04
1.080000000000000000e+03,1.230464323730608157e+04
1.078269999999999982e+03,1.241882896838232409e+04
1.076539999999999964e+03,1.243328235338144441e+04
1.074809999999999945e+03,1.243734339230346086e+04
1.073079999999999927e+03,1.267471208514836326e+04
1.071349999999999909e+03,1.292814843191619002e+04
1.069609999999999900e+03,1.307056554089685960e+04
1.067880000000000109e+03,1.328601700853888178e+04
1.066150000000000091e+03,1.360461613010383007e+04
1.064420000000000073e+03,1.364764290559166693e+04
1.062680000000000064e+03,1.406284969432543585e+04
1.060950000000000045e+03,1.408443159068750538e+04
1.059210000000000036e+03,1.444945312527165515e+04
1.057480000000000018e+03,1.459629014250797627e+04
1.055740000000000009e+03,1.449750642294252611e+04
1.054009999999999991e+03,1.486577856105309183e+04
1.052269999999999982e+03,1.497282958733803389e+04
1.050529999999999973e+03,1.516194789252203918e+04
1.048799999999999955e+03,1.547370261845817004e+04
1.047059999999999945e+03,1.548963566949255619e+04
1.045319999999999936e+03,1.576623599942597502e+04
1.043579999999999927e+03,1.564288360825845302e+04
1.041849999999999909e+03,1.578542838897152978e+04
1.040109999999999900e+03,1.620267074365440203e+04
1.038369999999999891e+03,1.621468037723631278e+04
1.036630000000000109e+03,1.656841728971725388e+04
1.034890000000000100e+03,1.657432148109725676e+04
1.033150000000000091e+03,1.639151295137628767e+04
1.031410000000000082e+03,1.700173170055438095e+04
1.029660000000000082e+03,1.703384651928381209e+04
1.027920000000000073e+03,1.710481963820768578e+04
1.026180000000000064e+03,1.710974003603059828e+04
1.024440000000000055e+03,1.723602771275256964e+04
1.022690000000000055e+03,1.724227070573588571e+04
1.020950000000000045e+03,1.738427275220362935e+04
1.019210000000000036e+03,1.771228207757042401e+04
1.017460000000000036e+03,1.788124615396090667e+04
1.015720000000000027e+03,1.801094984907346952e+04
1.013970000000000027e+03,1.789952791802437423e+04
1.012230000000000018e+03,1.819128598288272769e+04
1.010480000000000018e+03,1.815893804439404630e+04
1.008740000000000009e+03,1.829849047899818834e+04
1.006990000000000009e+03,1.824235653306991298e+04
1.005240000000000009e+03,1.831620948885532562e+04
1.003500000000000000e+03,1.814542338405198097e+04
1.001750000000000000e+03,1.811367033239779994e+04
1.000000000000000000e+03,1.825900418245730543e+04
9.982519999999999527e+02,1.837302785512014088e+04
9.965030000000000427e+02,1.827830702577550983e+04
9.947540000000000191e+02,1.863463313596037915e+04
9.930040000000000191e+02,1.836565466852780810e+04
9.912540000000000191e+02,1.833278310280891310e+04
9.895030000000000427e+02,1.810344688381932792e+04
9.877519999999999527e+02,1.838049752870600059e+04
9.860009999999999764e+02,1.814899503746895061e+04
9.842490000000000236e+02,1.812682779834062967e+04
9.824969999999999573e+02,1.811668738522956119e+04
9.807440000000000282e+02,1.816166214848754316e+04
9.789919999999999618e+02,1.795211536847597745e+04
9.772380000000000564e+02,1.797033203941321699e+04
9.754840000000000373e+02,1.794155546058476466e+04
9.737300000000000182e+02,1.773884563199061813e+04
9.719759999999999991e+02,1.752430255363077595e+04
9.702210000000000036e+02,1.763977446212865470e+04
9.684650000000000318e+02,1.731666130058226554e+04
9.667100000000000364e+02,1.697566661473365821e+04
9.649539999999999509e+02,1.708786682089525129e+04
9.631970000000000027e+02,1.696662186213262612e+04
9.614400000000000546e+02,1.658082353976777813e+04
9.596829999999999927e+02,1.674143185380076466e+04
9.579249999999999545e+02,1.654475490796471422e+04
9.561670000000000300e+02,1.637690456053771777e+04
9.544080000000000155e+02,1.612782887724263855e+04
9.526490000000000009e+02,1.614297975434629188e+04
9.508899999999999864e+02,1.581507719184868620e+04
9.491299999999999955e+02,1.585306919843010110e+04
9.473700000000000045e+02,1.557006772737829306e+04
9.456090000000000373e+02,1.530540074931996787e+04
9.438479999999999563e+02,1.529724025557487039e+04
9.420869999999999891e+02,1.494162624614297238e+04
9.403250000000000455e+02,1.489360663454361202e+04
9.385629999999999882e+02,1.467079346918226656e+04
9.367999999999999545e+02,1.435369462548147567e+04
9.350370000000000346e+02,1.426080218992190930e+04
9.332740000000000009e+02,1.406555616250355524e+04
9.315099999999999909e+02,1.384808436147670000e+04
9.297450000000000045e+02,1.369110672964754485e+04
9.279809999999999945e+02,1.346418764960169210e+04
9.262160000000000082e+02,1.329548270061349467e+04
9.244500000000000455e+02,1.292467182545668038e+04
9.226839999999999691e+02,1.278568724402099178e+04
9.209180000000000064e+02,1.247320895630640734e+04
9.191509999999999536e+02,1.223510464699206932e+04
9.173840000000000146e+02,1.197220659321560379e+04
9.156169999999999618e+02,1.180669479497697466e+04
9.138490000000000464e+02,1.145185687965342368e+04
9.120810000000000173e+02,1.117918518166284048e+04
9.103120000000000118e+02,1.110792729015594523e+04
9.085430000000000064e+02,1.083721557775554538e+04
9.067730000000000246e+02,1.025865759536421683e+04
9.050030000000000427e+02,1.011344575383127813e+04
9.032329999999999472e+02,9.884960053156712092e+03
9.014619999999999891e+02,9.930267986843937251e+03
8.996910000000000309e+02,9.775102023119790829e+03
8.979189999999999827e+02,9.167649617196388135e+03
8.961470000000000482e+02,8.926443275570309197e+03
8.943750000000000000e+02,8.699182998241529276e+03
8.926019999999999754e+02,8.378156182958111458e+03
8.908289999999999509e+02,8.019755393659033871e+03
8.890549999999999500e+02,7.730947989757805772e+03
8.872809999999999491e+02,7.661786573506353307e+03
8.855069999999999482e+02,7.388131144904684334e+03
8.837319999999999709e+02,7.195209005837416044e+03
8.819569999999999936e+02,7.021512816063732316e+03
8.801810000000000400e+02,6.724609839090466266e+03
8.784049999999999727e+02,6.700392773032988771e+03
8.766280000000000427e+02,6.391348842998704640e+03
8.748519999999999754e+02,6.206243579578520439e+03
8.730739999999999554e+02,6.225578600479275337e+03
8.712970000000000255e+02,6.013332287994126091e+03
8.695180000000000291e+02,5.856746144566823205e+03
8.677400000000000091e+02,5.773498667753628979e+03
8.659610000000000127e+02,5.661124134858466277e+03
8.641810000000000400e+02,5.505282488201155502e+03
8.624020000000000437e+02,5.396419527384670801e+03
8.606209999999999809e+02,5.334276466451861779e+03
8.588410000000000082e+02,5.366792091359864571e+03
8.570599999999999454e+02,5.321580487080529565e+03
8.552780000000000200e+02,5.270201595868798904e+03
8.534969999999999573e+02,5.091461409746247227e+03
8.517140000000000555e+02,5.115460854030563496e+03
8.499320000000000164e+02,5.218159003404063697e+03
8.481490000000000009e+02,5.186029750290275842e+03
8.463650000000000091e+02,5.208573036879330175e+03
8.445810000000000173e+02,5.375801926583633758e+03
8.427970000000000255e+02,5.230196419403182517e+03
8.410119999999999436e+02,5.577483355521748308e+03
8.392269999999999754e+02,5.296675856183232099e+03
8.374410000000000309e+02,5.638500722977420082e+03
8.356549999999999727e+02,5.739151115720582311e+03
8.338690000000000282e+02,5.796647034412693756e+03
8.320819999999999936e+02,5.994415222725634521e+03
8.302949999999999591e+02,6.124588898371963296e+03
8.285069999999999482e+02,6.389314766386371048e+03
8.267190000000000509e+02,6.548766083096968941e+03
8.249310000000000400e+02,6.819962848503782880e+03
8.231420000000000528e+02,6.967851709658694745e+03
8.213529999999999518e+02,7.256205980851016648e+03
8.195629999999999882e+02,7.440012270452214580e+03
8.177730000000000246e+02,7.641023931410403748e+03
8.159819999999999709e+02,7.792027533395048522e+03
8.141910000000000309e+02,8.147576468034647405e+03
8.123999999999999773e+02,8.410870735329212039e+03
8.106079999999999472e+02,8.657036846868140856e+03
8.088160000000000309e+02,8.880228252338369202e+03
8.070230000000000246e+02,9.230291424584058404e+03
8.052300000000000182e+02,9.462499852015796932e+03
8.034370000000000118e+02,9.896413534633604286e+03
8.016430000000000291e+02,9.864218887136696139e+03
7.998479999999999563e+02,1.026059585135854286e+04
7.980539999999999736e+02,1.032329161731116619e+04
7.962590000000000146e+02,1.055479895619404851e+04
7.944629999999999654e+02,1.081017780980827229e+04
7.926670000000000300e+02,1.082212180224306940e+04
7.908709999999999809e+02,1.116835093349847011e+04
7.890739999999999554e+02,1.130269148243290692e+04
7.872770000000000437e+02,1.142249713135621278e+04
7.854790000000000418e+02,1.145999412027350627e+04
7.836810000000000400e+02,1.161919617032632959e+04
7.818819999999999482e+02,1.174786948264487000e+04
7.800839999999999463e+02,1.184748163553669656e+04
7.782839999999999918e+02,1.194079117406368823e+04
7.764840000000000373e+02,1.201792569595469467e+04
7.746839999999999691e+02,1.217360520120972433e+04
7.728840000000000146e+02,1.221508968982876831e+04
7.710829999999999700e+02,1.231878524623069097e+04
7.692809999999999491e+02,1.233477181202200518e+04
7.674790000000000418e+02,1.238076328331935292e+04
7.656770000000000209e+02,1.249103966012274759e+04
7.638750000000000000e+02,1.256382094243218307e+04
7.620710000000000264e+02,1.266277910429992335e+04
7.602680000000000291e+02,1.280097612620546715e+04
7.584640000000000555e+02,1.307164396269333884e+04
7.566599999999999682e+02,1.307475662674281557e+04
7.548550000000000182e+02,1.316910002738695403e+04
7.530499999999999545e+02,1.318608821658805755e+04
7.512440000000000282e+02,1.330588706435292625e+04
7.494379999999999882e+02,1.317947066164849821e+04
7.476309999999999718e+02,1.333660483943370491e+04
7.458250000000000455e+02,1.343273791627216269e+04
7.440170000000000528e+02,1.344342732645263823e+04
7.422100000000000364e+02,1.367837563568635596e+04
7.404009999999999536e+02,1.372334016105362753e+04
7.385929999999999609e+02,1.388382358547413605e+04
7.367839999999999918e+02,1.390353739503683755e+04
7.349740000000000464e+02,1.389654153108888931e+04
7.331639999999999873e+02,1.415223026035046132e+04
7.313540000000000418e+02,1.426446358282156143e+04
7.295430000000000064e+02,1.437060713397317522e+04
7.277319999999999709e+02,1.450155523919998814e+04
7.259210000000000491e+02,1.450878789850199973e+04
7.241090000000000373e+02,1.470893068862168002e+04
7.222960000000000491e+02,1.468036355080888461e+04
7.204840000000000373e+02,1.492203535118367654e+04
7.186699999999999591e+02,1.525632270240834987e+04
7.168569999999999709e+02,1.520722899182061519e+04
7.150430000000000064e+02,1.522240523573529572e+04
7.132279999999999518e+02,1.543353137533742120e+04
7.114130000000000109e+02,1.534482191226125360e+04
7.095979999999999563e+02,1.548893684650679279e+04
7.077820000000000391e+02,1.578662157836076585e+04
7.059660000000000082e+02,1.583753066829404997e+04
7.041490000000000009e+02,1.596026947732934059e+04
7.023319999999999936e+02,1.625883260517990857e+04
7.005140000000000100e+02,1.607526537358282076e+04
6.986970000000000027e+02,1.633157711942651804e+04
6.968780000000000427e+02,1.663346374897754140e+04
6.950589999999999691e+02,1.669601461875094901e+04
6.932400000000000091e+02,1.684048972874673927e+04
6.914210000000000491e+02,1.691834907896490404e+04
6.896000000000000227e+02,1.677874307698202392e+04
6.877799999999999727e+02,1.708517605243994694e+04
6.859589999999999463e+02,1.724345839322376560e+04
6.841380000000000337e+02,1.708792489555061547e+04
6.823160000000000309e+02,1.706728068448078920e+04
6.804940000000000282e+02,1.734816059558187771e+04
6.786710000000000491e+02,1.754720971452048980e+04
6.768479999999999563e+02,1.765954291623629979e+04
6.750240000000000009e+02,1.780692524698058332e+04
6.732010000000000218e+02,1.795966659454855471e+04
6.713759999999999764e+02,1.820562203855477856e+04
6.695510000000000446e+02,1.811962148648592120e+04
6.677259999999999991e+02,1.834514493834200402e+04
6.659009999999999536e+02,1.842843239412302137e+04
6.640739999999999554e+02,1.864511370965577225e+04
6.622480000000000473e+02,1.870643404201220983e+04
6.604210000000000491e+02,1.914460322726282902e+04
6.585940000000000509e+02,1.921399633749965506e+04
6.567659999999999627e+02,1.928973822164869489e+04
6.549379999999999882e+02,1.951146399128214398e+04
6.531090000000000373e+02,1.957753845580260895e+04
6.512799999999999727e+02,2.002707676628407353e+04
6.494500000000000455e+02,2.027562369258414037e+04
6.476200000000000045e+02,2.060135442530016007e+04
6.457899999999999636e+02,2.102908896443217236e+04
6.439589999999999463e+02,2.130047202049320185e+04
6.421280000000000427e+02,2.171477884340357195e+04
6.402960000000000491e+02,2.193837410408805590e+04
6.384640000000000555e+02,2.226287309203363839e+04
6.366319999999999482e+02,2.260383580724032072e+04
6.347989999999999782e+02,2.285166686122346437e+04
6.329650000000000318e+02,2.314770619455207998e+04
6.311309999999999718e+02,2.351532917590042416e+04
6.292970000000000255e+02,2.396315580526851772e+04
6.274619999999999891e+02,2.480705061487634885e+04
6.256269999999999527e+02,2.484762903285082211e+04
6.237920000000000300e+02,2.545557105919192327e+04
6.219560000000000173e+02,2.569074116661299922e+04
6.201190000000000282e+02,2.641453929558577511e+04
6.182820000000000391e+02,2.670166095355414291e+04
6.164450000000000500e+02,2.741888614051812328e+04
6.146069999999999709e+02,2.812111924976594673e+04
6.127690000000000055e+02,2.846045584829141808e+04
6.109299999999999500e+02,2.926386028964324214e+04
6.090910000000000082e+02,2.979990818053316616e+04
6.072519999999999527e+02,3.058739952096120032e+04
6.054120000000000346e+02,3.118593860483965909e+04
6.035720000000000027e+02,3.175512109849503395e+04
6.017309999999999945e+02,3.236511125605688721e+04
5.998899999999999864e+02,3.289086478361287300e+04
5.980480000000000018e+02,3.370992589548813703e+04
5.962060000000000173e+02,3.413719033755312557e+04
5.943630000000000564e+02,3.475966228430696356e+04
5.925199999999999818e+02,3.521499752142452053e+04
5.906770000000000209e+02,3.602921604890577146e+04
5.888329999999999700e+02,3.628206198148382828e+04
5.869890000000000327e+02,3.668467116457795055e+04
5.851440000000000055e+02,3.734976767305197427e+04
5.832989999999999782e+02,3.773192739217281633e+04
5.814529999999999745e+02,3.803647435691344435e+04
5.796069999999999709e+02,3.845352449241004069e+04
5.777609999999999673e+02,3.868085779866260418e+04
5.759139999999999873e+02,3.918717825078074384e+04
5.740660000000000309e+02,3.936098578887956683e+04
5.722179999999999609e+02,3.971841641788776906e+04
5.703700000000000045e+02,3.999425013780535664e+04
5.685209999999999582e+02,4.009795084384136135e+04
5.666720000000000255e+02,4.015077460083103506e+04
5.648229999999999791e+02,4.024548140877438709e+04
5.629729999999999563e+02,4.039965510291985265e+04
5.611219999999999573e+02,4.092639562328523607e+04
5.592709999999999582e+02,4.117759911462802847e+04
5.574199999999999591e+02,4.127768557694821357e+04
5.555679999999999836e+02,4.188109876546394662e+04
5.537160000000000082e+02,4.213247488493653509e+04
5.518630000000000564e+02,4.235623765054192336e+04
5.500099999999999909e+02,4.291172330706199864e+04
5.481570000000000391e+02,4.336395185449672863e+04
5.463029999999999973e+02,4.354762694793185801e+04
5.444479999999999791e+02,4.425700852725544974e+04
5.425940000000000509e+02,4.467492930235504173e+04
5.407380000000000564e+02,4.523848011819911335e+04
5.388819999999999482e+02,4.581903370470162918e+04
5.370259999999999536e+02,4.640603006186261337e+04
5.351699999999999591e+02,4.696982918968207377e+04
5.333129999999999882e+02,4.763949460285493114e+04
5.314550000000000409e+02,4.873202624117200321e+04
5.295969999999999800e+02,4.901806056986866315e+04
5.277390000000000327e+02,4.971849758894492697e+04
5.258799999999999955e+02,5.034254073276277632e+04
5.240199999999999818e+02,5.107550994104819256e+04
5.221609999999999445e+02,5.159703836519016477e+04
5.203010000000000446e+02,5.183583281360623369e+04
5.184400000000000546e+02,5.216295322598999337e+04
5.165789999999999509e+02,5.265033620817289193e+04
5.147169999999999845e+02,5.328416507387168531e+04
5.128550000000000182e+02,5.325465646913292585e+04
5.109929999999999950e+02,5.346035039395659260e+04
5.091299999999999955e+02,5.357523010167734174e+04
5.072669999999999959e+02,5.354037229870222654e+04
5.054030000000000200e+02,5.376710019808595825e+04
5.035389999999999873e+02,5.372415054649383819e+04
5.016739999999999782e+02,5.375716651667906990e+04
4.998090000000000259e+02,5.356980489558690169e+04
4.979429999999999836e+02,5.408206881564737705e+04
4.960769999999999982e+02,5.398073510410729796e+04
4.942110000000000127e+02,5.392178376096666034e+04
4.923439999999999941e+02,5.379887785814371455e+04
4.904769999999999754e+02,5.376679428337542049e+04
4.886089999999999804e+02,5.353449606821363705e+04
4.867409999999999854e+02,5.320574014074011939e+04
4.848720000000000141e+02,5.313186949211863248e+04
4.830029999999999859e+02,5.296790109079744434e+04
4.811329999999999814e+02,5.276149788753066969e+04
4.792629999999999768e+02,5.272497689115451794e+04
4.773929999999999723e+02,5.243773810166899784e+04
4.755219999999999914e+02,5.182570440918681561e+04
4.736499999999999773e+02,5.180363575304487313e+04
4.717789999999999964e+02,5.150138637326040043e+04
4.699060000000000059e+02,5.139078481878053572e+04
4.680339999999999918e+02,5.112348254065815127e+04
4.661600000000000250e+02,5.109340796641692577e+04
4.642869999999999777e+02,5.057363266853320238e+04
4.624130000000000109e+02,5.005276220461733465e+04
4.605380000000000109e+02,4.964529651390899380e+04
4.586630000000000109e+02,4.939457282771890459e+04
4.567880000000000109e+02,4.916637114604706585e+04
4.549119999999999777e+02,4.861761413626145804e+04
4.530350000000000250e+02,4.877024173753688228e+04
4.511589999999999918e+02,4.835988863543407933e+04
4.492810000000000059e+02,4.784296271034174424e+04
4.474039999999999964e+02,4.774725608187114995e+04
4.455249999999999773e+02,4.734711650866337004e+04
4.436469999999999914e+02,4.694653623207735654e+04
4.417679999999999723e+02,4.657978036363961291e+04
4.398879999999999768e+02,4.617438884242769564e+04
4.380079999999999814e+02,4.595319912282125733e+04
4.361279999999999859e+02,4.569675120482032798e+04
4.342470000000000141e+02,4.542318753245373955e+04
4.323659999999999854e+02,4.509738562104522862e+04
4.304839999999999804e+02,4.471946787395466527e+04
4.286019999999999754e+02,4.442219184715318261e+04
4.267189999999999941e+02,4.383451990330999251e+04
4.248360000000000127e+02,4.375430963906525722e+04
4.229519999999999982e+02,4.350000337637594203e+04
4.210679999999999836e+02,4.324955875257284788e+04
4.191829999999999927e+02,4.312049804887906066e+04
4.172980000000000018e+02,4.277185894333761826e+04
4.154130000000000109e+02,4.291318143594854337e+04
4.135269999999999868e+02,4.248554774680713308e+04
4.116410000000000196e+02,4.233135561506258091e+04
4.097540000000000191e+02,4.222710722003311821e+04
4.078670000000000186e+02,4.195360034162344527e+04
4.059789999999999850e+02,4.185057711835310329e+04
4.040910000000000082e+02,4.161279537090381928e+04
4.022019999999999982e+02,4.154701719697482622e+04
4.003129999999999882e+02,4.145214045804658963e+04
3.984230000000000018e+02,4.141872721097638714e+04
3.965330000000000155e+02,4.122447535806500673e+04
3.946429999999999723e+02,4.130248489931246149e+04
3.927520000000000095e+02,4.115039783028610691e+04
3.908600000000000136e+02,4.085545408967435651e+04
3.889689999999999941e+02,4.077334970680136757e+04
3.870760000000000218e+02,4.061445054568123305e+04
3.851829999999999927e+02,4.046831265606443048e+04
3.832900000000000205e+02,4.072263603795095696e+04
3.813960000000000150e+02,4.049364256417703291e+04
3.795020000000000095e+02,4.030147032097802730e+04
3.776080000000000041e+02,4.045535930835398176e+04
3.757119999999999891e+02,4.040821314912721573e+04
3.738170000000000073e+02,4.027370634763921407e+04
3.719209999999999923e+02,4.014696250621027139e+04
3.700240000000000009e+02,4.000160156336677028e+04
3.681270000000000095e+02,3.977274172818333318e+04
3.662300000000000182e+02,3.966178300065996154e+04
3.643319999999999936e+02,3.988680706921189994e+04
3.624340000000000259e+02,3.963315220440904523e+04
3.605350000000000250e+02,3.982308005363015400e+04
3.586360000000000241e+02,3.990130892846001370e+04
3.567359999999999900e+02,3.965604043521930726e+04
3.548360000000000127e+02,4.003687292652923497e+04
3.529350000000000023e+02,3.986248796763079008e+04
3.510339999999999918e+02,3.991278395220331004e+04
3.491320000000000050e+02,3.984112240438644221e+04
3.472300000000000182e+02,3.996606175893919135e+04
3.453279999999999745e+02,3.982472201586159645e+04
3.434250000000000114e+02,4.002060463761429128e+04
3.415210000000000150e+02,3.970864956249669194e+04
3.396170000000000186e+02,3.985615530748123274e+04
3.377130000000000223e+02,3.980640187256793433e+04
3.358079999999999927e+02,3.976251063789595355e+04
3.339030000000000200e+02,3.979916018215993972e+04
3.319970000000000141e+02,3.989907184431130736e+04
3.300910000000000082e+02,3.970726424421089177e+04
3.281840000000000259e+02,3.995873867960066127e+04
3.262769999999999868e+02,4.005303381152926158e+04
3.243690000000000282e+02,3.991043089650764887e+04
3.224610000000000127e+02,4.000550863679385657e+04
3.205520000000000209e+02,4.006362824764622201e+04
3.186429999999999723e+02,4.006174847255377972e+04
3.167339999999999804e+02,4.008004931151651544e+04
3.148240000000000123e+02,4.001403191788685217e+04
3.129130000000000109e+02,3.987849622973721125e+04
3.110020000000000095e+02,4.006878107307264872e+04
3.090910000000000082e+02,4.025004644789320446e+04
3.071789999999999736e+02,4.005259342492709402e+04
3.052669999999999959e+02,4.006858089212863706e+04
3.033539999999999850e+02,3.987886987888698059e+04
3.014399999999999977e+02,4.004362032317729609e+04
2.995269999999999868e+02,3.985427018691778358e+04
2.976120000000000232e+02,3.980898243416145851e+04
2.956979999999999791e+02,3.984229410085531708e+04
2.937819999999999823e+02,3.987978802690542216e+04
2.918670000000000186e+02,3.975962137240570155e+04
2.899510000000000218e+02,3.965517596852636052e+04
2.880339999999999918e+02,3.947697175314533524e+04
2.861170000000000186e+02,3.945042782102036290e+04
2.841990000000000123e+02,3.958010499452097429e+04
2.822810000000000059e+02,3.945344240983048803e+04
2.803629999999999995e+02,3.948086006694888056e+04
2.784440000000000168e+02,3.931967872604795411e+04
2.765240000000000009e+02,3.948599832490833069e+04
2.746039999999999850e+02,3.920017808261841856e+04
2.726840000000000259e+02,3.922195799917824479e+04
2.707629999999999768e+02,3.923463875174637360e+04
2.688419999999999845e+02,3.930169962165222387e+04
2.669200000000000159e+02,3.912474124452073738e+04
2.649970000000000141e+02,3.903786355803528568e+04
2.630749999999999886e+02,3.895488531173979572e+04
2.611510000000000105e+02,3.922066828781100048e+04
2.592269999999999754e+02,3.882537125655419368e+04
2.573029999999999973e+02,3.910477421796941780e+04
2.553789999999999907e+02,3.897751717205664318e+04
2.534530000000000030e+02,3.946072109898459894e+04
2.515279999999999916e+02,3.924932446610251645e+04
2.496009999999999991e+02,3.928394868120091269e+04
2.476750000000000114e+02,3.931273233648927271e+04
2.457479999999999905e+02,3.970819630803745531e+04
2.438199999999999932e+02,3.969574053336671204e+04
2.418919999999999959e+02,3.972190458484443661e+04
2.399629999999999939e+02,3.989560880675497174e+04
2.380339999999999918e+02,4.007751281312905485e+04
2.361049999999999898e+02,4.013571660396666266e+04
2.341750000000000114e+02,4.040066046099776577e+04
2.322439999999999998e+02,4.021508432164633996e+04
2.303129999999999882e+02,4.056612788332373748e+04
2.283820000000000050e+02,4.022137114602996735e+04
2.264499999999999886e+02,4.048297430800626171e+04
2.245180000000000007e+02,4.085179712926160573e+04
2.225850000000000080e+02,4.093151976626583928e+04
2.206510000000000105e+02,4.079166215634568653e+04
2.187179999999999893e+02,4.079820400747416716e+04
2.167829999999999870e+02,4.085754566364936181e+04
2.148480000000000132e+02,4.077984685372459353e+04
2.129130000000000109e+02,4.076448757769988151e+04
2.109770000000000039e+02,4.079950786659039295e+04
2.090409999999999968e+02,4.105758764754471486e+04
2.071040000000000134e+02,4.099572690972017153e+04
2.051670000000000016e+02,4.091192562210160395e+04
2.032290000000000134e+02,4.108652373196683766e+04
2.012909999999999968e+02,4.120350125015858066e+04
1.993520000000000039e+02,4.114711808205361012e+04
1.974130000000000109e+02,4.114953428037404956e+04
1.954730000000000132e+02,4.101872970857399196e+04
1.935329999999999870e+02,4.111374446127666306e+04
1.915929999999999893e+02,4.115249853848206840e+04
1.896510000000000105e+02,4.117847154126543319e+04
1.877100000000000080e+02,4.126382400509743456e+04
1.857680000000000007e+02,4.145267551005414134e+04
1.838249999999999886e+02,4.160026599317046202e+04
1.818820000000000050e+02,4.162171567489174049e+04
1.799379999999999882e+02,4.161848425077590218e+04
1.779939999999999998e+02,4.181427198325588688e+04
1.760500000000000114e+02,4.205653887233164278e+04
1.741049999999999898e+02,4.216168455052041827e+04
1.721589999999999918e+02,4.224084895475982921e+04
1.702129999999999939e+02,4.255195243151186150e+04
1.682659999999999911e+02,4.274557455018816108e+04
1.663189999999999884e+02,4.285691569930309197e+04
1.643720000000000141e+02,4.312219587885664077e+04
1.624240000000000066e+02,4.330553459512243717e+04
1.604749999999999943e+02,4.333427178494082182e+04
1.585260000000000105e+02,4.370732792098499340e+04
1.565769999999999982e+02,4.386856300325494522e+04
1.546270000000000095e+02,4.434537645375740249e+04
1.526759999999999877e+02,4.436236820926785731e+04
1.507249999999999943e+02,4.434269882670480729e+04
1.487740000000000009e+02,4.459740830606821692e+04
1.468220000000000027e+02,4.476929598501147120e+04
1.448700000000000045e+02,4.467450248369912879e+04
1.429170000000000016e+02,4.476696709758086217e+04
1.409629999999999939e+02,4.553382976333490660e+04
1.390089999999999861e+02,4.568973116440435115e+04
1.370550000000000068e+02,4.516069130078919261e+04
1.350999999999999943e+02,4.514500938345606846e+04
1.331440000000000055e+02,4.518742534901838371e+04
1.311879999999999882e+02,4.574077996538062871e+04
1.292319999999999993e+02,4.568973323254282150e+04
1.272750000000000057e+02,4.575852427690208424e+04
1.253179999999999978e+02,4.594351392977113574e+04
1.233599999999999994e+02,4.611952127523531817e+04
1.214009999999999962e+02,4.581852624981079862e+04
1.194419999999999931e+02,4.546816974825091893e+04
1.174830000000000041e+02,4.550097177055566863e+04
1.155229999999999961e+02,4.501213131611121935e+04
1.135630000000000024e+02,4.459362934317641339e+04
1.116020000000000039e+02,4.417460480876079964e+04
1.096400000000000006e+02,4.464167764928324323e+04
1.076779999999999973e+02,4.525196888654048234e+04
1.057159999999999940e+02,4.466801852053251787e+04
1.037530000000000001e+02,4.378150542344000860e+04
1.017900000000000063e+02,4.375495068066244130e+04
9.982569999999999766e+01,4.430098477085872582e+04
9.786119999999999663e+01,4.472482492189184268e+04
9.589629999999999654e+01,4.532581887847575854e+04
9.393080000000000496e+01,4.664949436833180516e+04
9.196490000000000009e+01,4.730770360426915431e+04
8.999840000000000373e+01,4.711733430549620971e+04
8.803149999999999409e+01,4.673721869330481422e+04
8.606399999999999295e+01,4.720198447838611901e+04
8.409610000000000696e+01,4.740690389051897364e+04
8.212760000000000105e+01,4.625202463187295507e+04
8.015860000000000696e+01,4.430928280243588961e+04
7.818909999999999627e+01,4.334243837028750568e+04
7.621909999999999741e+01,4.339461130349948508e+04
7.424869999999999948e+01,4.301031771480490715e+04
7.227760000000000673e+01,4.117342913825042342e+04
7.030610000000000070e+01,3.689315397589214990e+04
6.833410000000000650e+01,3.022947605109971119e+04
6.636159999999999570e+01,2.235837533190420436e+04
6.438859999999999673e+01,1.428985178632863062e+04
6.241499999999999915e+01,8.103115224928997122e+03
6.044100000000000250e+01,3.884815928496460401e+03
5.846640000000000015e+01,1.208551547977310747e+03
