1.838309999999999945e+03,-5.699778058372321539e+02
1.836750000000000000e+03,-4.058349778530828189e+01
1.835180000000000064e+03,1.577517430417792639e+02
1.833609999999999900e+03,-5.964518581953598186e+00
1.832049999999999955e+03,1.180765921923884889e+02
1.830480000000000018e+03,9.045765370811568573e+01
1.828910000000000082e+03,5.297872127729788190e+02
1.827339999999999918e+03,1.744652693870593794e+02
1.825779999999999973e+03,-1.104979915258882102e+02
1.824210000000000036e+03,2.656773882276029326e+02
1.822640000000000100e+03,4.402012655302823987e+02
1.821069999999999936e+03,3.332736403821472777e+02
1.819500000000000000e+03,4.174945127831742866e+02
1.817930000000000064e+03,2.464638827333837980e+02
1.816359999999999900e+03,2.753817502327729017e+02
1.814789999999999964e+03,1.724481152813241351e+02
1.813220000000000027e+03,4.282629778790578712e+02
1.811650000000000091e+03,5.186263380259624682e+02
1.810079999999999927e+03,8.473819572206411976e+01
1.808500000000000000e+03,1.993847575915133348e+02
1.806930000000000064e+03,-9.900671765510924160e+01
1.805359999999999900e+03,3.809503046474128496e+02
1.803789999999999964e+03,-4.994417550088837743e+01
1.802210000000000036e+03,3.749473427039629314e+01
1.800640000000000100e+03,1.560969211793708382e+02
1.799069999999999936e+03,2.728476056375366170e+02
1.797490000000000009e+03,1.730693802557652816e+00
1.795920000000000073e+03,-9.722195468202698976e+01
1.794339999999999918e+03,-1.770028576313343365e+02
1.792769999999999982e+03,1.497011609413457336e+02
1.791190000000000055e+03,-1.876037331223196816e+02
1.789619999999999891e+03,-8.260304749236092903e+01
1.788039999999999964e+03,-3.625919326703588013e+02
1.786470000000000027e+03,-1.541745799831696786e+02
1.784890000000000100e+03,-2.629674562755244551e+02
1.783309999999999945e+03,-7.937249319026886951e+01
1.781740000000000009e+03,2.797096960622729966e+02
1.780160000000000082e+03,4.733806680331617827e+02
1.778579999999999927e+03,4.028394793816260062e+02
1.777000000000000000e+03,4.500461301076284144e+02
1.775430000000000064e+03,7.296013254336285172e+02
1.773849999999999909e+03,8.014039850453118561e+02
1.772269999999999982e+03,7.139744840345229022e+02
1.770690000000000055e+03,9.346728224013349973e+02
1.769109999999999900e+03,9.582990001456928439e+02
1.767529999999999973e+03,8.928130172676319489e+02
1.765950000000000045e+03,8.303548737671371782e+02
1.764369999999999891e+03,1.247684569644188741e+03
1.762789999999999964e+03,7.613021048988302937e+02
1.761210000000000036e+03,5.394474795310525224e+02
1.759619999999999891e+03,3.839366870131780161e+02
1.758039999999999964e+03,3.334574102699989453e+02
1.756460000000000036e+03,4.062259729043580592e+02
1.754880000000000109e+03,6.143623749162943568e+02
1.753289999999999964e+03,5.277412871666456340e+02
1.751710000000000036e+03,5.133303780321148224e+01
1.750130000000000109e+03,-9.728737218266178388e+01
1.748539999999999964e+03,-9.050626441111671738e+01
1.746960000000000036e+03,-1.659513257724029245e+02
1.745369999999999891e+03,-5.582955317267042119e+02
1.743789999999999964e+03,-5.213652444633771665e+02
1.742200000000000045e+03,-6.636547641435754485e+02
1.740619999999999891e+03,-1.206329128255616524e+03
1.739029999999999973e+03,-8.475439616616931744e+02
1.737450000000000045e+03,-1.066382977149114595e+03
1.735859999999999900e+03,-1.004203124281033524e+03
1.734269999999999982e+03,-1.235436094385877368e+03
1.732690000000000055e+03,-1.072012252001659363e+03
1.731099999999999909e+03,-1.454590535832365276e+03
1.729509999999999991e+03,-9.973816426359844627e+02
1.727920000000000073e+03,-9.910055724125122651e+02
1.726329999999999927e+03,-1.037702325161939370e+03
1.724750000000000000e+03,-9.131806064119882649e+02
1.723160000000000082e+03,-6.036626728872797685e+02
1.721569999999999936e+03,-7.925775623355002608e+02
1.719980000000000018e+03,-5.638652747566375183e+02
1.718390000000000100e+03,-5.278258101506798994e+02
1.716799999999999955e+03,-4.855591685175895691e+02
1.715210000000000036e+03,-7.882653498574509285e+02
1.713609999999999900e+03,-1.188037974182210746e+03
1.712019999999999982e+03,-9.102901336878421716e+02
1.710430000000000064e+03,-6.365351161664002575e+02
1.708839999999999918e+03,-4.094729216178238858e+02
1.707250000000000000e+03,-4.268035500421974575e+02
1.705650000000000091e+03,-5.912822846407070756e+02
1.704059999999999945e+03,-3.123788912308664294e+02
1.702470000000000027e+03,1.777167920609645080e+01
1.700869999999999891e+03,-9.766685528037487529e+01
1.699279999999999973e+03,-4.130226300921640359e+01
1.697690000000000055e+03,1.519295062890450936e+02
1.696089999999999918e+03,1.507311719145945972e+02
1.694500000000000000e+03,-1.634230369529250311e+02
1.692900000000000091e+03,-5.828801602251769509e+01
1.691299999999999955e+03,1.834135154056566535e+02
1.689710000000000036e+03,6.742801731794897933e+02
1.688109999999999900e+03,2.956750599125371082e+02
1.686509999999999991e+03,5.591564571432973025e+02
1.684920000000000073e+03,5.847639815584843745e+02
1.683319999999999936e+03,2.798787340941780712e+02
1.681720000000000027e+03,4.686999971275654389e+02
1.680119999999999891e+03,8.969677706587244757e+02
1.678529999999999973e+03,8.789430065224005375e+02
1.676930000000000064e+03,1.054504135358423810e+03
1.675329999999999927e+03,8.563517746922152583e+02
1.673730000000000018e+03,6.479059245237149298e+02
1.672130000000000109e+03,1.270586584852979286e+03
1.670529999999999973e+03,8.749937556800141465e+02
1.668930000000000064e+03,8.694874370047473349e+02
1.667329999999999927e+03,1.240367628827254521e+03
1.665730000000000018e+03,9.575543311475194059e+02
1.664130000000000109e+03,1.135767543965484947e+03
1.662519999999999982e+03,1.179762972352546058e+03
1.660920000000000073e+03,1.057608871856617043e+03
1.659319999999999936e+03,1.158561281858448638e+03
1.657720000000000027e+03,5.884202023580437526e+02
1.656109999999999900e+03,6.545999990996933775e+02
1.654509999999999991e+03,6.782316062853496987e+02
1.652910000000000082e+03,6.855497239687683759e+02
1.651299999999999955e+03,3.127677128766808892e+02
1.649700000000000045e+03,1.500185172461933689e+02
1.648089999999999918e+03,1.949685221319668926e+02
1.646490000000000009e+03,1.266720131876063533e+02
1.644880000000000109e+03,3.197940340512723196e+02
1.643279999999999973e+03,8.679021179300616495e+01
1.641670000000000073e+03,-5.671575136543833651e+01
1.640059999999999945e+03,3.224241252656502184e+02
1.638460000000000036e+03,5.220391658818407450e+02
1.636849999999999909e+03,-7.786894150919397362e+01
1.635240000000000009e+03,-4.592112091106537264e+02
1.633630000000000109e+03,-3.627476369226496900e+02
1.632029999999999973e+03,-1.797075572436151560e+02
1.630420000000000073e+03,-4.823196907769306563e+01
1.628809999999999945e+03,1.664945887778594624e+01
1.627200000000000045e+03,-1.285232733772136271e+02
1.625589999999999918e+03,-1.146301658426818904e+02
1.623980000000000018e+03,-2.942112185186269926e+02
1.622369999999999891e+03,-4.479864314050209941e+02
1.620759999999999991e+03,-5.451758045018941630e+02
1.619150000000000091e+03,-5.812593378092278726e+02
1.617539999999999964e+03,-1.032477031327027362e+03
1.615930000000000064e+03,-8.317088850552972872e+02
1.614309999999999945e+03,-7.984092670825048117e+02
1.612700000000000045e+03,-1.276029777630508761e+03
1.611089999999999918e+03,-8.530844483890105039e+02
1.609480000000000018e+03,-1.239053279357976862e+03
1.607859999999999900e+03,-1.397311986310567590e+03
1.606250000000000000e+03,-1.366289474099306972e+03
1.604640000000000100e+03,-1.380821122098495835e+03
1.603019999999999982e+03,-1.473003657367225969e+03
1.601410000000000082e+03,-1.157763962186174467e+03
1.599789999999999964e+03,-1.319015829161726288e+03
1.598180000000000064e+03,-1.181324790800455958e+03
1.596559999999999945e+03,-8.662659894828539109e+02
1.594940000000000055e+03,-1.016702023262812872e+03
1.593329999999999927e+03,-1.567154138330559363e+03
1.591710000000000036e+03,-1.136579503817367367e+03
1.590089999999999918e+03,-1.254119704401702620e+03
1.588480000000000018e+03,-1.268174972898472333e+03
1.586859999999999900e+03,-1.166564505189657211e+03
1.585240000000000009e+03,-1.171848872578397277e+03
1.583619999999999891e+03,-9.424080750646680826e+02
1.582000000000000000e+03,-1.129122112648474285e+03
1.580380000000000109e+03,-9.974109853298577946e+02
1.578759999999999991e+03,-9.407746931087458506e+02
1.577150000000000091e+03,-8.163911014717450598e+02
1.575519999999999982e+03,-6.859266139592218678e+02
1.573900000000000091e+03,-8.127148270307807252e+02
1.572279999999999973e+03,-9.743178751998639200e+02
1.570660000000000082e+03,-8.369757584665057948e+02
1.569039999999999964e+03,-8.104684768306760816e+02
1.567420000000000073e+03,-3.332560302924248390e+02
1.565799999999999955e+03,-4.689784188516787253e+02
1.564170000000000073e+03,-5.925004870174889220e+02
1.562549999999999955e+03,-3.298128842600854114e+02
1.560930000000000064e+03,-3.927601166002714308e+02
1.559299999999999955e+03,-1.024480461011407897e+02
1.557680000000000064e+03,-5.678528712467232253e+01
1.556059999999999945e+03,5.703026367542770458e+02
1.554430000000000064e+03,4.438288459182949737e+02
1.552809999999999945e+03,-5.471323888613551389e+01
1.551180000000000064e+03,1.189222825286124134e+02
1.549549999999999955e+03,-1.350177102201560047e+02
1.547930000000000064e+03,2.656350227062648628e+02
1.546299999999999955e+03,3.403243422082305187e+02
1.544680000000000064e+03,1.859470664513064548e+02
1.543049999999999955e+03,8.852569820397184230e+01
1.541420000000000073e+03,1.730288157931063324e+02
1.539789999999999964e+03,2.279964192187908338e+02
1.538170000000000073e+03,5.469187876069045160e+02
1.536539999999999964e+03,5.203957032832986442e+02
1.534910000000000082e+03,7.363171047961513977e+02
1.533279999999999973e+03,7.689829921455384465e+02
1.531650000000000091e+03,1.081413365331405657e+03
1.530019999999999982e+03,1.007488224353830446e+03
1.528390000000000100e+03,8.072675692127086222e+02
1.526759999999999991e+03,8.210713999081344809e+02
1.525130000000000109e+03,8.741397164400550537e+02
1.523500000000000000e+03,1.087752518808512832e+03
1.521859999999999900e+03,1.009376122110596043e+03
1.520230000000000018e+03,8.294775555743253790e+02
1.518599999999999909e+03,1.071743474874587264e+03
1.516970000000000027e+03,9.619938800113595789e+02
1.515329999999999927e+03,8.968337216815707507e+02
1.513700000000000045e+03,1.202812757913663518e+03
1.512069999999999936e+03,1.072596279982273700e+03
1.510430000000000064e+03,9.676082147618144518e+02
1.508799999999999955e+03,9.157803679257340264e+02
1.507160000000000082e+03,1.044180250555786188e+03
1.505529999999999973e+03,9.440010348150535719e+02
1.503890000000000100e+03,8.299288652956165606e+02
1.502259999999999991e+03,8.346382806501787854e+02
1.500619999999999891e+03,6.130140589812799590e+02
1.498980000000000018e+03,2.124736399040411925e+02
1.497349999999999909e+03,4.255958316127507715e+02
1.495710000000000036e+03,2.243233603860280709e+02
1.494069999999999936e+03,6.041146917510195635e+02
1.492430000000000064e+03,3.867098257077013841e+02
1.490789999999999964e+03,4.748287622560601449e+02
1.489160000000000082e+03,4.773920208365452709e+02
1.487519999999999982e+03,1.631189052354020532e+02
1.485880000000000109e+03,2.661295922259741928e+02
1.484240000000000009e+03,4.404240818082471378e+02
1.482599999999999909e+03,1.159623739822127391e+02
1.480960000000000036e+03,4.456444687478506239e+02
1.479319999999999936e+03,-1.310296338947955519e+02
1.477670000000000073e+03,-1.185028520560736069e+02
1.476029999999999973e+03,-1.645496921824524179e+02
1.474390000000000100e+03,-1.497327297171723330e+02
1.472750000000000000e+03,-1.556119646601873683e+02
1.471109999999999900e+03,-3.033273970114823896e+02
1.469460000000000036e+03,-4.752636603064456722e+02
1.467819999999999936e+03,-7.174918301415018504e+02
1.466180000000000064e+03,-6.353961973848781781e+02
1.464529999999999973e+03,-6.250024256627075374e+02
1.462890000000000100e+03,-9.017595303897978738e+02
1.461240000000000009e+03,-8.445191835750447353e+02
1.459599999999999909e+03,-7.220890257858700352e+02
1.457950000000000045e+03,-8.560821038785215933e+02
1.456309999999999945e+03,-6.735846835730917519e+02
1.454660000000000082e+03,-5.129311865731870057e+02
1.453009999999999991e+03,-7.264945744052383816e+02
1.451369999999999891e+03,-5.863664316589711234e+02
1.449720000000000027e+03,-3.912832443984661950e+02
1.448069999999999936e+03,-4.527369419699098216e+02
1.446420000000000073e+03,-5.017075243733997922e+02
1.444769999999999982e+03,-3.277749916088359896e+02
1.443119999999999891e+03,-2.166593436762632336e+02
1.441480000000000018e+03,-3.721009871546993963e+01
1.439829999999999927e+03,2.253212430968414992e+01
1.438180000000000064e+03,-1.766025374971795827e+02
1.436529999999999973e+03,-2.638140841359854676e+02
1.434880000000000109e+03,2.338974843931646319e+02
1.433220000000000027e+03,-1.177200375526444986e+02
1.431569999999999936e+03,-7.234258344399859197e+01
1.429920000000000073e+03,-2.158820141673350008e+02
1.428269999999999982e+03,7.554167027735093143e+01
1.426619999999999891e+03,-2.072115301099693170e+02
1.424960000000000036e+03,2.677844531554874266e+02
1.423309999999999945e+03,1.897713834764726926e+01
1.421660000000000082e+03,2.634529387077927822e+02
1.420000000000000000e+03,9.857688636162492912e+01
1.418349999999999909e+03,3.979185723012778908e+02
1.416700000000000045e+03,1.096633734089264181e+02
1.415039999999999964e+03,8.869528545113280416e+01
1.413380000000000109e+03,3.453496210587763926e+02
1.411730000000000018e+03,3.872830781573429704e+02
1.410069999999999936e+03,2.158826077419507783e+02
1.408420000000000073e+03,-6.061804958003631327e+01
1.406759999999999991e+03,3.396866739814722678e+02
1.405099999999999909e+03,1.484338211084395880e+02
1.403450000000000045e+03,3.098018197773781139e+02
1.401789999999999964e+03,3.722741608812793856e+02
1.400130000000000109e+03,4.322689255506265908e+02
1.398470000000000027e+03,4.849661137854272965e+02
1.396809999999999945e+03,4.764857255857205018e+02
1.395150000000000091e+03,3.926477609514404321e+02
1.393490000000000009e+03,6.411322198826528620e+02
1.391829999999999927e+03,6.268191023793187924e+02
1.390170000000000073e+03,6.739684084414329845e+02
1.388509999999999991e+03,8.093001380690402584e+02
1.386849999999999909e+03,5.872542912620992865e+02
1.385190000000000055e+03,7.056308680205984274e+02
1.383529999999999973e+03,9.524298683445813367e+02
1.381859999999999900e+03,6.694883552596438676e+02
1.380200000000000045e+03,6.265118558685499011e+02
1.378539999999999964e+03,7.784377800429210765e+02
1.376880000000000109e+03,6.630261277827812592e+02
1.375210000000000036e+03,5.255125726402911823e+02
1.373549999999999955e+03,4.927854206650663400e+02
1.371880000000000109e+03,1.588356700260919752e+02
1.370220000000000027e+03,-1.443869816641963553e+02
1.368549999999999955e+03,3.915070722003438277e+02
1.366890000000000100e+03,4.491689207949966658e+02
1.365220000000000027e+03,4.738667791630723514e+02
1.363559999999999945e+03,2.671312804266926832e+01
1.361890000000000100e+03,3.442947909142239951e+02
1.360220000000000027e+03,2.945381815698638093e+02
1.358549999999999955e+03,4.451433000095421448e+02
1.356890000000000100e+03,2.588783026129967766e+02
1.355220000000000027e+03,4.989872255561931524e+02
1.353549999999999955e+03,2.172778762834495865e+02
1.351880000000000109e+03,1.349102547947259154e+02
1.350210000000000036e+03,4.206436109007336199e+01
1.348539999999999964e+03,-3.502198048305290285e+02
1.346869999999999891e+03,3.202377570328972070e+02
1.345200000000000045e+03,1.175170466803683667e+02
1.343529999999999973e+03,1.614980641119036591e+02
1.341859999999999900e+03,4.566080932748445775e+01
1.340190000000000055e+03,5.805282327099121176e+00
1.338519999999999982e+03,3.867148311078199185e+01
1.336849999999999909e+03,-8.040588321498944424e+00
1.335170000000000073e+03,-1.087836245100188535e+02
1.333500000000000000e+03,-7.121258930962358136e+01
1.331829999999999927e+03,-2.066398263251612661e+02
1.330150000000000091e+03,-2.998390769926918438e+02
1.328480000000000018e+03,-6.448832073755766032e+02
1.326799999999999955e+03,-7.550000513706763741e+02
1.325130000000000109e+03,-1.076841075120930327e+03
1.323450000000000045e+03,-7.319355124436260667e+02
1.321779999999999973e+03,-8.196934295611863490e+02
1.320099999999999909e+03,-6.561254602115077432e+02
1.318430000000000064e+03,-3.979202706963988021e+02
1.316750000000000000e+03,-4.441898946743458509e+02
1.315069999999999936e+03,-3.580984908285317943e+02
1.313400000000000091e+03,-2.440888158321176888e+02
1.311720000000000027e+03,-2.513950053139124066e+02
1.310039999999999964e+03,-2.825201669719681377e+02
1.308359999999999900e+03,-2.945843008062220179e+02
1.306680000000000064e+03,-4.475674068167136284e+02
1.305000000000000000e+03,-3.604494850034534466e+02
1.303319999999999936e+03,-5.478905353664449649e+02
1.301640000000000100e+03,-4.337705579056637362e+02
1.299960000000000036e+03,-3.720695526211202377e+02
1.298279999999999973e+03,-2.640075195128010819e+02
1.296599999999999909e+03,-4.186244585806998657e+02
1.294920000000000073e+03,-1.777403698248817818e+02
1.293240000000000009e+03,-1.628552532452740707e+02
1.291559999999999945e+03,-4.284910884188138880e+01
1.289869999999999891e+03,-3.759240942896140041e+02
1.288190000000000055e+03,-1.213362452635774389e+02
1.286509999999999991e+03,-4.023873684137652162e+02
1.284819999999999936e+03,-4.409806765790417558e+02
1.283140000000000100e+03,-2.569500951065856498e+02
1.281450000000000045e+03,-1.596024027883540839e+02
1.279769999999999982e+03,7.412988330679945648e+01
1.278079999999999927e+03,-1.342814238914434100e+02
1.276400000000000091e+03,-2.000074331736541353e+02
1.274710000000000036e+03,4.960226011162740178e+01
1.273029999999999973e+03,2.512779554521112004e+02
1.271339999999999918e+03,4.961886492209159769e+02
1.269650000000000091e+03,3.358796666742855450e+02
1.267960000000000036e+03,2.947310078123118728e+02
1.266279999999999973e+03,2.528697613732801983e+02
1.264589999999999918e+03,1.350221029947861098e+02
1.262900000000000091e+03,4.971747683009307366e+02
1.261210000000000036e+03,4.808077572916954523e+02
1.259519999999999982e+03,3.899010699670761824e+02
1.257829999999999927e+03,4.022547063270612853e+02
1.256140000000000100e+03,4.255286663716251496e+02
1.254450000000000045e+03,4.621029501008742955e+02
1.252759999999999991e+03,2.446175575146917254e+02
1.251069999999999936e+03,2.421524886131373933e+02
1.249380000000000109e+03,5.910877433961723000e+02
1.247680000000000064e+03,4.733723488682880998e+02
1.245990000000000009e+03,6.923678979062970029e+02
1.244299999999999955e+03,4.735237706288899062e+02
1.242609999999999900e+03,7.396799670360924210e+02
1.240910000000000082e+03,7.766240995857660891e+02
1.239220000000000027e+03,5.655405902479105862e+02
1.237519999999999982e+03,8.861243087344919331e+02
1.235829999999999927e+03,8.473610936515760841e+02
1.234130000000000109e+03,1.087484398075059289e+03
1.232440000000000055e+03,8.732414772470947355e+02
1.230740000000000009e+03,1.088084367607516469e+03
1.229049999999999955e+03,9.752817410344578093e+02
1.227349999999999909e+03,7.450242173317965353e+02
1.225650000000000091e+03,8.254063089957344346e+02
1.223960000000000036e+03,1.083863947247911710e+03
1.222259999999999991e+03,1.091605624848773004e+03
1.220559999999999945e+03,1.544566917816220666e+03
1.218859999999999900e+03,1.390887826150261390e+03
1.217160000000000082e+03,1.278168349850879167e+03
1.215460000000000036e+03,1.612748488918114163e+03
1.213759999999999991e+03,1.815648243351934070e+03
1.212059999999999945e+03,1.656687613152360427e+03
1.210359999999999900e+03,1.753286598319362383e+03
1.208660000000000082e+03,1.831925198852972244e+03
1.206960000000000036e+03,1.982483414753165562e+03
1.205259999999999991e+03,2.179421246019956016e+03
1.203559999999999945e+03,1.957638692653366888e+03
1.201859999999999900e+03,2.093635754653339973e+03
1.200150000000000091e+03,2.347411527946089336e+03
1.198450000000000045e+03,2.397807465475547360e+03
1.196750000000000000e+03,2.506603018371592043e+03
1.195039999999999964e+03,2.727176214859791799e+03
1.193339999999999918e+03,3.017710643285303377e+03
1.191630000000000109e+03,2.959662002806049713e+03
1.189930000000000064e+03,3.321215306761048851e+03
1.188220000000000027e+03,3.373084829314393573e+03
1.186519999999999982e+03,3.527717008798819734e+03
1.184809999999999945e+03,3.777544694384763716e+03
1.183099999999999909e+03,4.012651282840386557e+03
1.181400000000000091e+03,4.252201598017156357e+03
1.179690000000000055e+03,4.209686349505354883e+03
1.177980000000000018e+03,4.605790003863301536e+03
1.176269999999999982e+03,4.940512561090916279e+03
1.174569999999999936e+03,4.858260272122919559e+03
1.172859999999999900e+03,5.041180992383131525e+03
1.171150000000000091e+03,5.296240615513030207e+03
1.169440000000000055e+03,5.272199141512668575e+03
1.167730000000000018e+03,5.642576570382021600e+03
1.166019999999999982e+03,5.759272902121061634e+03
1.164309999999999945e+03,6.079088136729827966e+03
1.162599999999999909e+03,6.286522274208306044e+03
1.160880000000000109e+03,6.594666205276567780e+03
1.159170000000000073e+03,6.781997791201298242e+03
1.157460000000000036e+03,7.019728279995746561e+03
1.155750000000000000e+03,7.467537671659883927e+03
1.154029999999999973e+03,7.316575425651768455e+03
1.152319999999999936e+03,7.754722265762175084e+03
1.150609999999999900e+03,7.991088008742299280e+03
1.148890000000000100e+03,8.017661040081227839e+03
1.147180000000000064e+03,8.140684231507599179e+03
1.145460000000000036e+03,8.513253994617043645e+03
1.143750000000000000e+03,8.629094634489694727e+03
1.142029999999999973e+03,8.971021129369641130e+03
1.140319999999999936e+03,8.731199217688532372e+03
1.138599999999999909e+03,9.499982444338995265e+03
1.136880000000000109e+03,9.434863857183387154e+03
1.135160000000000082e+03,9.850523456221751985e+03
1.133450000000000045e+03,1.022659608414000832e+04
1.131730000000000018e+03,1.030161241494888964e+04
1.130009999999999991e+03,1.054186693195170665e+04
1.128289999999999964e+03,1.086399963514850242e+04
1.126569999999999936e+03,1.118363052453924320e+04
1.124849999999999909e+03,1.130075960012395808e+04
1.123130000000000109e+03,1.158670686190259585e+04
1.121410000000000082e+03,1.154325230987521354e+04
1.119690000000000055e+03,1.205005594404179283e+04
1.117970000000000027e+03,1.194837776440232119e+04
1.116250000000000000e+03,1.245021777095681318e+04
1.114529999999999973e+03,1.263471596370525367e+04
1.112799999999999955e+03,1.298523318737059890e+04
1.111079999999999927e+03,1.310218739312436810e+04
1.109359999999999900e+03,1.332349978507208289e+04
1.107630000000000109e+03,1.366197012769948924e+04
1.105910000000000082e+03,1.383053853265252110e+04
1.104190000000000055e+03,1.418984512379951775e+04
1.102460000000000036e+03,1.437852858538900182e+04
1.100740000000000009e+03,1.453429118954131263e+04
1.099009999999999991e+03,1.482128994328148838e+04
1.097279999999999973e+03,1.502500616236097994e+04
1.095559999999999945e+03,1.522626260632999038e+04
1.093829999999999927e+03,1.517347411756020301e+04
1.092099999999999909e+03,1.556976309412975388e+04
1.090380000000000109e+03,1.552695337791541533e+04
1.088650000000000091e+03,1.608235764663566079e+04
1.086920000000000073e+03,1.627787938069525990e+04
1.085190000000000055e+03,1.635267858009417250e+04
1.083460000000000036e+03,1.695659524483243149e+04
1.081730000000000018e+03,1.708668937491001998e+04
1.080000000000000000e+03,1.760286097032695398e+04
1.078269999999999982e+03,1.747955003108321398e+04
1.076539999999999964e+03,1.762755655717881018e+04
1.074809999999999945e+03,1.810450054861376702e+04
1.073079999999999927e+03,1.797100200538803620e+04
1.071349999999999909e+03,1.850964092750163400e+04
1.069609999999999900e+03,1.851932913541347807e+04
1.067880000000000109e+03,1.876092262673369987e+04
1.066150000000000091e+03,1.909297358339330094e+04
1.064420000000000073e+03,1.922960200539222569e+04
1.062680000000000064e+03,1.968887826521183160e+04
1.060950000000000045e+03,1.995644125641742721e+04
1.059210000000000036e+03,2.027235136041018268e+04
1.057480000000000018e+03,2.046436892082240229e+04
1.055740000000000009e+03,2.054805286898830673e+04
1.054009999999999991e+03,2.072232499860718235e+04
1.052269999999999982e+03,2.099564279094625817e+04
1.050529999999999973e+03,2.120575732359119138e+04
1.048799999999999955e+03,2.163334112628400908e+04
1.047059999999999945e+03,2.187136950310209068e+04
1.045319999999999936e+03,2.193259462022603839e+04
1.043579999999999927e+03,2.221529647765580739e+04
1.041849999999999909e+03,2.233158905728990794e+04
1.040109999999999900e+03,2.273216475889283174e+04
1.038369999999999891e+03,2.272465720080164465e+04
1.036630000000000109e+03,2.299216638301623607e+04
1.034890000000000100e+03,2.338223230553673056e+04
1.033150000000000091e+03,2.314991496836308943e+04
1.031410000000000082e+03,2.342857437149526231e+04
1.029660000000000082e+03,2.381251398810463434e+04
1.027920000000000073e+03,2.386034650828704616e+04
1.026180000000000064e+03,2.384011576877532207e+04
1.024440000000000055e+03,2.401066176956942945e+04
1.022690000000000055e+03,2.441988652750545589e+04
1.020950000000000045e+03,2.458676564534978388e+04
1.019210000000000036e+03,2.492156150349999371e+04
1.017460000000000036e+03,2.501457502601827582e+04
1.015720000000000027e+03,2.526254400121874642e+04
1.013970000000000027e+03,2.534022991157488286e+04
1.012230000000000018e+03,2.555815200382556941e+04
1.010480000000000018e+03,2.553975030201960908e+04
1.008740000000000009e+03,2.548430551132052642e+04
1.006990000000000009e+03,2.568201619735246641e+04
1.005240000000000009e+03,2.564748289447788557e+04
1.003500000000000000e+03,2.568272759757342283e+04
1.001750000000000000e+03,2.551284668253672135e+04
1.000000000000000000e+03,2.562134177859352349e+04
9.982519999999999527e+02,2.574362950385894510e+04
9.965030000000000427e+02,2.560145504082420666e+04
9.947540000000000191e+02,2.573115666199226689e+04
9.930040000000000191e+02,2.563163594868339715e+04
9.912540000000000191e+02,2.575303124646801734e+04
9.895030000000000427e+02,2.559474406351535436e+04
9.877519999999999527e+02,2.584743281850512722e+04
9.860009999999999764e+02,2.565833751143731206e+04
9.842490000000000236e+02,2.548989954070228850e+04
9.824969999999999573e+02,2.556751743471682857e+04
9.807440000000000282e+02,2.537237251863666461e+04
9.789919999999999618e+02,2.514932210554345511e+04
9.772380000000000564e+02,2.523585006102103216e+04
9.754840000000000373e+02,2.511563373473711545e+04
9.737300000000000182e+02,2.493417312669165403e+04
9.719759999999999991e+02,2.470458823688464327e+04
9.702210000000000036e+02,2.461134017060073529e+04
9.684650000000000318e+02,2.438318881783123652e+04
9.667100000000000364e+02,2.391153200471824675e+04
9.649539999999999509e+02,2.416079183175965591e+04
9.631970000000000027e+02,2.400228818888410751e+04
9.614400000000000546e+02,2.356528004416694603e+04
9.596829999999999927e+02,2.354782739760821278e+04
9.579249999999999545e+02,2.321437109757575672e+04
9.561670000000000300e+02,2.291121022225813067e+04
9.544080000000000155e+02,2.275550554653781728e+04
9.526490000000000009e+02,2.261065622204691317e+04
9.508899999999999864e+02,2.224048224878546898e+04
9.491299999999999955e+02,2.228110429135563027e+04
9.473700000000000045e+02,2.177880161162807053e+04
9.456090000000000373e+02,2.135317480063598487e+04
9.438479999999999563e+02,2.155380319377720298e+04
9.420869999999999891e+02,2.087034679105172108e+04
9.403250000000000455e+02,2.086752607308708684e+04
9.385629999999999882e+02,2.055428048564502387e+04
9.367999999999999545e+02,2.016775043570053094e+04
9.350370000000000346e+02,1.960013544262603682e+04
9.332740000000000009e+02,1.961571550642156944e+04
9.315099999999999909e+02,1.925091092353106797e+04
9.297450000000000045e+02,1.882678158338173671e+04
9.279809999999999945e+02,1.855068692998503684e+04
9.262160000000000082e+02,1.840908744559335901e+04
9.244500000000000455e+02,1.793616301957120595e+04
9.226839999999999691e+02,1.774829342921074567e+04
9.209180000000000064e+02,1.726183867451195692e+04
9.191509999999999536e+02,1.701931879368568480e+04
9.173840000000000146e+02,1.638077367470142053e+04
9.156169999999999618e+02,1.633088331755912805e+04
9.138490000000000464e+02,1.561416764968787902e+04
9.120810000000000173e+02,1.534058666979716509e+04
9.103120000000000118e+02,1.521184023141274520e+04
9.085430000000000064e+02,1.473978840710557415e+04
9.067730000000000246e+02,1.413293097645638045e+04
9.050030000000000427e+02,1.373002808593934606e+04
9.032329999999999472e+02,1.342807973555452918e+04
9.014619999999999891e+02,1.315088559391278250e+04
8.996910000000000309e+02,1.284390591841637797e+04
8.979189999999999827e+02,1.223280030364760751e+04
8.961470000000000482e+02,1.192332908099550696e+04
8.943750000000000000e+02,1.167123225046012521e+04
8.926019999999999754e+02,1.115364929552852846e+04
8.908289999999999509e+02,1.074964065864320582e+04
8.890549999999999500e+02,1.034806574917906255e+04
8.872809999999999491e+02,1.010790508364894777e+04
8.855069999999999482e+02,9.919078662052917934e+03
8.837319999999999709e+02,9.407565782545265392e+03
8.819569999999999936e+02,9.153107072817663720e+03
8.801810000000000400e+02,9.035981756828667130e+03
8.784049999999999727e+02,8.718710536423961457e+03
8.766280000000000427e+02,8.486272561324454728e+03
8.748519999999999754e+02,8.180509494979953161e+03
8.730739999999999554e+02,8.026858675165552995e+03
8.712970000000000255e+02,7.658602764106137329e+03
8.695180000000000291e+02,7.497538876738748513e+03
8.677400000000000091e+02,7.323049898126337212e+03
8.659610000000000127e+02,7.273133793422312010e+03
8.641810000000000400e+02,6.957170451113612216e+03
8.624020000000000437e+02,6.934302054730898817e+03
8.606209999999999809e+02,6.781525161645877233e+03
8.588410000000000082e+02,6.703383214486835641e+03
8.570599999999999454e+02,6.567473806571601017e+03
8.552780000000000200e+02,6.631536826261719398e+03
8.534969999999999573e+02,6.489514829090658168e+03
8.517140000000000555e+02,6.490203814237858751e+03
8.499320000000000164e+02,6.450047782523899514e+03
8.481490000000000009e+02,6.329003955013031373e+03
8.463650000000000091e+02,6.376792219941460644e+03
8.445810000000000173e+02,6.688533985383452091e+03
8.427970000000000255e+02,6.589909251338998729e+03
8.410119999999999436e+02,6.798116423356375890e+03
8.392269999999999754e+02,6.790257021315410384e+03
8.374410000000000309e+02,7.050689376150694443e+03
8.356549999999999727e+02,7.167375082313970779e+03
8.338690000000000282e+02,7.305254139805256273e+03
8.320819999999999936e+02,7.372304767586341768e+03
8.302949999999999591e+02,7.583668672039973899e+03
8.285069999999999482e+02,7.947363997430700692e+03
8.267190000000000509e+02,8.238492524796703947e+03
8.249310000000000400e+02,8.552074254137973185e+03
8.231420000000000528e+02,8.590807217620982556e+03
8.213529999999999518e+02,9.169653308340231888e+03
8.195629999999999882e+02,9.357450483681321202e+03
8.177730000000000246e+02,9.667420711477825535e+03
8.159819999999999709e+02,9.895801874292730645e+03
8.141910000000000309e+02,1.031659601474040392e+04
8.123999999999999773e+02,1.075568313282086456e+04
8.106079999999999472e+02,1.115912099881095492e+04
8.088160000000000309e+02,1.143151176756939094e+04
8.070230000000000246e+02,1.200951313446686981e+04
8.052300000000000182e+02,1.217314732922650001e+04
8.034370000000000118e+02,1.279523435184831760e+04
8.016430000000000291e+02,1.294881178529141471e+04
7.998479999999999563e+02,1.320743951710247347e+04
7.980539999999999736e+02,1.357784241888950055e+04
7.962590000000000146e+02,1.375203554405472096e+04
7.944629999999999654e+02,1.428345878008213185e+04
7.926670000000000300e+02,1.443455461900236696e+04
7.908709999999999809e+02,1.483304306081547111e+04
7.890739999999999554e+02,1.487072142585962138e+04
7.872770000000000437e+02,1.520019231872325327e+04
7.854790000000000418e+02,1.530257298462942708e+04
7.836810000000000400e+02,1.549860610323998117e+04
7.818819999999999482e+02,1.558892884462099755e+04
7.800839999999999463e+02,1.566548683107223042e+04
7.782839999999999918e+02,1.599389146002531197e+04
7.764840000000000373e+02,1.611986839132708701e+04
7.746839999999999691e+02,1.630297762497758958e+04
7.728840000000000146e+02,1.635403916097679030e+04
7.710829999999999700e+02,1.651284994375287351e+04
7.692809999999999491e+02,1.661112986041375552e+04
7.674790000000000418e+02,1.664522192890051519e+04
7.656770000000000209e+02,1.690038614921319822e+04
7.638750000000000000e+02,1.694490252135179617e+04
7.620710000000000264e+02,1.696452455759400618e+04
7.602680000000000291e+02,1.738904187653714325e+04
7.584640000000000555e+02,1.790324795274462667e+04
7.566599999999999682e+02,1.768034603008807608e+04
7.548550000000000182e+02,1.777313271392235038e+04
7.530499999999999545e+02,1.796753132348490908e+04
7.512440000000000282e+02,1.824187838868117979e+04
7.494379999999999882e+02,1.812377730415629048e+04
7.476309999999999718e+02,1.820390452432443271e+04
7.458250000000000455e+02,1.841290710262204811e+04
7.440170000000000528e+02,1.833003428902350424e+04
7.422100000000000364e+02,1.852341683355443820e+04
7.404009999999999536e+02,1.878782375959013007e+04
7.385929999999999609e+02,1.891356604375528696e+04
7.367839999999999918e+02,1.898949625494835345e+04
7.349740000000000464e+02,1.904943427977571992e+04
7.331639999999999873e+02,1.930406385266625148e+04
7.313540000000000418e+02,1.949638497361993359e+04
7.295430000000000064e+02,1.953075371911418188e+04
7.277319999999999709e+02,1.988469393701319495e+04
7.259210000000000491e+02,1.992386562731694721e+04
7.241090000000000373e+02,1.996520475296307995e+04
7.222960000000000491e+02,1.994947120036992419e+04
7.204840000000000373e+02,2.033219308156465559e+04
7.186699999999999591e+02,2.055793805807145691e+04
7.168569999999999709e+02,2.074599846836612414e+04
7.150430000000000064e+02,2.088744597313291888e+04
7.132279999999999518e+02,2.110596045866490022e+04
7.114130000000000109e+02,2.105026611355015484e+04
7.095979999999999563e+02,2.134820293778871564e+04
7.077820000000000391e+02,2.150698655317632074e+04
7.059660000000000082e+02,2.184186126204989705e+04
7.041490000000000009e+02,2.206430261029606481e+04
7.023319999999999936e+02,2.220185497611907340e+04
7.005140000000000100e+02,2.202273382945460617e+04
6.986970000000000027e+02,2.246576819246626837e+04
6.968780000000000427e+02,2.280114436100346211e+04
6.950589999999999691e+02,2.289907139517387259e+04
6.932400000000000091e+02,2.310114929497751291e+04
6.914210000000000491e+02,2.342831806041436357e+04
6.896000000000000227e+02,2.335082817529516615e+04
6.877799999999999727e+02,2.350177379985208245e+04
6.859589999999999463e+02,2.380480537982637179e+04
6.841380000000000337e+02,2.382930767332309188e+04
6.823160000000000309e+02,2.383351577004284627e+04
6.804940000000000282e+02,2.426163450416697015e+04
6.786710000000000491e+02,2.441797888923617938e+04
6.768479999999999563e+02,2.474673383554992324e+04
6.750240000000000009e+02,2.488893428044724715e+04
6.732010000000000218e+02,2.509483031115964695e+04
6.713759999999999764e+02,2.526920662537050885e+04
6.695510000000000446e+02,2.538617334838081297e+04
6.677259999999999991e+02,2.570445048019054957e+04
6.659009999999999536e+02,2.587213802079972811e+04
6.640739999999999554e+02,2.620992538732139656e+04
6.622480000000000473e+02,2.636236833965813639e+04
6.604210000000000491e+02,2.675125625672817841e+04
6.585940000000000509e+02,2.711365442998539584e+04
6.567659999999999627e+02,2.748465741528010403e+04
6.549379999999999882e+02,2.773295058039319701e+04
6.531090000000000373e+02,2.798032840476436832e+04
6.512799999999999727e+02,2.852743633254335145e+04
6.494500000000000455e+02,2.884224876671745005e+04
6.476200000000000045e+02,2.945943122784698426e+04
6.457899999999999636e+02,3.008032371593193602e+04
6.439589999999999463e+02,3.059770051922880884e+04
6.421280000000000427e+02,3.107444727298695943e+04
6.402960000000000491e+02,3.147999818892692565e+04
6.384640000000000555e+02,3.186513897879219076e+04
6.366319999999999482e+02,3.264922964258276988e+04
6.347989999999999782e+02,3.308162427716301318e+04
6.329650000000000318e+02,3.340396276763499191e+04
6.311309999999999718e+02,3.407867097883499082e+04
6.292970000000000255e+02,3.492552891076301603e+04
6.274619999999999891e+02,3.590721050698172621e+04
6.256269999999999527e+02,3.607942174726712256e+04
6.237920000000000300e+02,3.696120263161920593e+04
6.219560000000000173e+02,3.767422698855644558e+04
6.201190000000000282e+02,3.834745470299277804e+04
6.182820000000000391e+02,3.870921190804780053e+04
6.164450000000000500e+02,3.952171860372151423e+04
6.146069999999999709e+02,4.061708846497987543e+04
6.127690000000000055e+02,4.127422774007023691e+04
6.109299999999999500e+02,4.237327002713006368e+04
6.090910000000000082e+02,4.298400165119342273e+04
6.072519999999999527e+02,4.425250261226030125e+04
6.054120000000000346e+02,4.478612639317321737e+04
6.035720000000000027e+02,4.593211943421940668e+04
6.017309999999999945e+02,4.650177514132932265e+04
5.998899999999999864e+02,4.758028003166042618e+04
5.980480000000000018e+02,4.812126743418935803e+04
5.962060000000000173e+02,4.886094394298567931e+04
5.943630000000000564e+02,4.979242281003031530e+04
5.925199999999999818e+02,5.060161070634673524e+04
5.906770000000000209e+02,5.128640763193483872e+04
5.888329999999999700e+02,5.180524672323001141e+04
5.869890000000000327e+02,5.232813476675949642e+04
5.851440000000000055e+02,5.289114482187939575e+04
5.832989999999999782e+02,5.356882375215438515e+04
5.814529999999999745e+02,5.387442453981959261e+04
5.796069999999999709e+02,5.474923412551889487e+04
5.777609999999999673e+02,5.478709250925231026e+04
5.759139999999999873e+02,5.535507255752122728e+04
5.740660000000000309e+02,5.552571415455004171e+04
5.722179999999999609e+02,5.607370439524565154e+04
5.703700000000000045e+02,5.653434327960799419e+04
5.685209999999999582e+02,5.653844351966661634e+04
5.666720000000000255e+02,5.698763232614564185e+04
5.648229999999999791e+02,5.709134969904505124e+04
5.629729999999999563e+02,5.738694823447259841e+04
5.611219999999999573e+02,5.755052781646470248e+04
5.592709999999999582e+02,5.779233581025910098e+04
5.574199999999999591e+02,5.805021221585581225e+04
5.555679999999999836e+02,5.898028947463996883e+04
5.537160000000000082e+02,5.907685506785471080e+04
5.518630000000000564e+02,5.962816135947170551e+04
5.500099999999999909e+02,6.007527590810570837e+04
5.481570000000000391e+02,6.096509871375677903e+04
5.463029999999999973e+02,6.132076202422406641e+04
5.444479999999999791e+02,6.183858572329324670e+04
5.425940000000000509e+02,6.267632535414590529e+04
5.407380000000000564e+02,6.303861742762553331e+04
5.388819999999999482e+02,6.382049752563091170e+04
5.370259999999999536e+02,6.496880564816207334e+04
5.351699999999999591e+02,6.537948179521900602e+04
5.333129999999999882e+02,6.617709794318339846e+04
5.314550000000000409e+02,6.746673397565291089e+04
5.295969999999999800e+02,6.754385787744508707e+04
5.277390000000000327e+02,6.866134964855987346e+04
5.258799999999999955e+02,6.919460111007140949e+04
5.240199999999999818e+02,7.025739214545194409e+04
5.221609999999999445e+02,7.073939915143765393e+04
5.203010000000000446e+02,7.119538565358635969e+04
5.184400000000000546e+02,7.153777153530763462e+04
5.165789999999999509e+02,7.192132505323343503e+04
5.147169999999999845e+02,7.242963779519437230e+04
5.128550000000000182e+02,7.286299809557021945e+04
5.109929999999999950e+02,7.328052595436094271e+04
5.091299999999999955e+02,7.314229284266055038e+04
5.072669999999999959e+02,7.326274721154363942e+04
5.054030000000000200e+02,7.340838045423099538e+04
5.035389999999999873e+02,7.325460109962866409e+04
5.016739999999999782e+02,7.325104046304243093e+04
4.998090000000000259e+02,7.323674715125148941e+04
4.979429999999999836e+02,7.383329240160490735e+04
4.960769999999999982e+02,7.381748489879685803e+04
4.942110000000000127e+02,7.377056464282736124e+04
4.923439999999999941e+02,7.329412275405805849e+04
4.904769999999999754e+02,7.359036803412873996e+04
4.886089999999999804e+02,7.350793152536069101e+04
4.867409999999999854e+02,7.310860210739227477e+04
4.848720000000000141e+02,7.300757074446264596e+04
4.830029999999999859e+02,7.283140639425051631e+04
4.811329999999999814e+02,7.291151994287109119e+04
4.792629999999999768e+02,7.243810042608526419e+04
4.773929999999999723e+02,7.224472784389300796e+04
4.755219999999999914e+02,7.110705296517144598e+04
4.736499999999999773e+02,7.143937567264064273e+04
4.717789999999999964e+02,7.089883446768150316e+04
4.699060000000000059e+02,7.101124142224008392e+04
4.680339999999999918e+02,7.066326446437035338e+04
4.661600000000000250e+02,7.014787543127049867e+04
4.642869999999999777e+02,7.008230248574232974e+04
4.624130000000000109e+02,6.923344673515846080e+04
4.605380000000000109e+02,6.880058806205092696e+04
4.586630000000000109e+02,6.844311593229050050e+04
4.567880000000000109e+02,6.797141034587720060e+04
4.549119999999999777e+02,6.758358164105586184e+04
4.530350000000000250e+02,6.774572970023310336e+04
4.511589999999999918e+02,6.696781388615889591e+04
4.492810000000000059e+02,6.652410497825566563e+04
4.474039999999999964e+02,6.627991219710095902e+04
4.455249999999999773e+02,6.562966608674250892e+04
4.436469999999999914e+02,6.524979610313263402e+04
4.417679999999999723e+02,6.488954249123017507e+04
4.398879999999999768e+02,6.423868513325375534e+04
4.380079999999999814e+02,6.375915392633330339e+04
4.361279999999999859e+02,6.364036887046881020e+04
4.342470000000000141e+02,6.309469987212357228e+04
4.323659999999999854e+02,6.276269694625071133e+04
4.304839999999999804e+02,6.222942992068815511e+04
4.286019999999999754e+02,6.180372888897253142e+04
4.267189999999999941e+02,6.078920360027467541e+04
4.248360000000000127e+02,6.111328422675655747e+04
4.229519999999999982e+02,6.061540043888004584e+04
4.210679999999999836e+02,6.013630248747434234e+04
4.191829999999999927e+02,6.010345996425051271e+04
4.172980000000000018e+02,5.964008319874673907e+04
4.154130000000000109e+02,5.964489219096302986e+04
4.135269999999999868e+02,5.917177641443202447e+04
4.116410000000000196e+02,5.884430631682855892e+04
4.097540000000000191e+02,5.886739129285096715e+04
4.078670000000000186e+02,5.821214186896652973e+04
4.059789999999999850e+02,5.815400736099753703e+04
4.040910000000000082e+02,5.785009837424557190e+04
4.022019999999999982e+02,5.774652414561498153e+04
4.003129999999999882e+02,5.774269535928357072e+04
3.984230000000000018e+02,5.775560117319591518e+04
3.965330000000000155e+02,5.713853235044771282e+04
3.946429999999999723e+02,5.751616889103894937e+04
3.927520000000000095e+02,5.698779983442247612e+04
3.908600000000000136e+02,5.684824506206472870e+04
3.889689999999999941e+02,5.665768653461298527e+04
3.870760000000000218e+02,5.622101113323325990e+04
3.851829999999999927e+02,5.626584085806316580e+04
3.832900000000000205e+02,5.631903570910268172e+04
3.813960000000000150e+02,5.613826448852856993e+04
3.795020000000000095e+02,5.614365831503723166e+04
3.776080000000000041e+02,5.596215718862866925e+04
3.757119999999999891e+02,5.601589847615041799e+04
3.738170000000000073e+02,5.585215600857821119e+04
3.719209999999999923e+02,5.596144711312300933e+04
3.700240000000000009e+02,5.576145167093788041e+04
3.681270000000000095e+02,5.527446103820420103e+04
3.662300000000000182e+02,5.519401521492202301e+04
3.643319999999999936e+02,5.524218264672708756e+04
3.624340000000000259e+02,5.504771480868961953e+04
3.605350000000000250e+02,5.545660006710961170e+04
3.586360000000000241e+02,5.537324997635125328e+04
3.567359999999999900e+02,5.519701282333699055e+04
3.548360000000000127e+02,5.540844024176679522e+04
3.529350000000000023e+02,5.568078043914372392e+04
3.510339999999999918e+02,5.555476512854537577e+04
3.491320000000000050e+02,5.526420243801358447e+04
3.472300000000000182e+02,5.529188416004533065e+04
3.453279999999999745e+02,5.529345029464062100e+04
3.434250000000000114e+02,5.554670885059736611e+04
3.415210000000000150e+02,5.525117970862975926e+04
3.396170000000000186e+02,5.522251482017799572e+04
3.377130000000000223e+02,5.536973418524210865e+04
3.358079999999999927e+02,5.538672565346779447e+04
3.339030000000000200e+02,5.535484129562281305e+04
3.319970000000000141e+02,5.544024888172456122e+04
3.300910000000000082e+02,5.513788056212729134e+04
3.281840000000000259e+02,5.539400402717833640e+04
3.262769999999999868e+02,5.551153150686029403e+04
3.243690000000000282e+02,5.554093061180855148e+04
3.224610000000000127e+02,5.555507365167583339e+04
3.205520000000000209e+02,5.578926815734381671e+04
3.186429999999999723e+02,5.551000651817713515e+04
3.167339999999999804e+02,5.602154873417578347e+04
3.148240000000000123e+02,5.575094221653869317e+04
3.129130000000000109e+02,5.567412684554133739e+04
3.110020000000000095e+02,5.577471517007658258e+04
3.090910000000000082e+02,5.575072719014442555e+04
3.071789999999999736e+02,5.585175015720659576e+04
3.052669999999999959e+02,5.581565673992230586e+04
3.033539999999999850e+02,5.578821410983247188e+04
3.014399999999999977e+02,5.582144214702450699e+04
2.995269999999999868e+02,5.551858654842920805e+04
2.976120000000000232e+02,5.555964858871876640e+04
2.956979999999999791e+02,5.528332699322102417e+04
2.937819999999999823e+02,5.542048279659488617e+04
2.918670000000000186e+02,5.530037496418142837e+04
2.899510000000000218e+02,5.518211739902776753e+04
2.880339999999999918e+02,5.506582998103321006e+04
2.861170000000000186e+02,5.486084577867012558e+04
2.841990000000000123e+02,5.506327156324838870e+04
2.822810000000000059e+02,5.484450048332835286e+04
2.803629999999999995e+02,5.499281253890998778e+04
2.784440000000000168e+02,5.480437438105628098e+04
2.765240000000000009e+02,5.507084588947852899e+04
2.746039999999999850e+02,5.462128037301755830e+04
2.726840000000000259e+02,5.461471783167331887e+04
2.707629999999999768e+02,5.456316475601942511e+04
2.688419999999999845e+02,5.474347457522712648e+04
2.669200000000000159e+02,5.437887369957305782e+04
2.649970000000000141e+02,5.443400200858052995e+04
2.630749999999999886e+02,5.435150672189690522e+04
2.611510000000000105e+02,5.455450682927327580e+04
2.592269999999999754e+02,5.415230959049506055e+04
2.573029999999999973e+02,5.446455500556228071e+04
2.553789999999999907e+02,5.455660307447492960e+04
2.534530000000000030e+02,5.501274605503912608e+04
2.515279999999999916e+02,5.488852543991224957e+04
2.496009999999999991e+02,5.491811949504462245e+04
2.476750000000000114e+02,5.495352995448593720e+04
2.457479999999999905e+02,5.539708887478800898e+04
2.438199999999999932e+02,5.536185613516072044e+04
2.418919999999999959e+02,5.562010572743891680e+04
2.399629999999999939e+02,5.552232349865059950e+04
2.380339999999999918e+02,5.581874352117831586e+04
2.361049999999999898e+02,5.600694579502206761e+04
2.341750000000000114e+02,5.629761604627341876e+04
2.322439999999999998e+02,5.614239415395420656e+04
2.303129999999999882e+02,5.649581435164669529e+04
2.283820000000000050e+02,5.639075663935097691e+04
2.264499999999999886e+02,5.679486658174982585e+04
2.245180000000000007e+02,5.713917853344560717e+04
2.225850000000000080e+02,5.711447797836452810e+04
2.206510000000000105e+02,5.693280479534033657e+04
2.187179999999999893e+02,5.730752805695115967e+04
2.167829999999999870e+02,5.708448397251771530e+04
2.148480000000000132e+02,5.694086165498600894e+04
2.129130000000000109e+02,5.711658110435604613e+04
2.109770000000000039e+02,5.698226756201255193e+04
2.090409999999999968e+02,5.730449570568880881e+04
2.071040000000000134e+02,5.697837069584579149e+04
2.051670000000000016e+02,5.710762729109876091e+04
2.032290000000000134e+02,5.752013057094318356e+04
2.012909999999999968e+02,5.739711537491799390e+04
1.993520000000000039e+02,5.747994670151136233e+04
1.974130000000000109e+02,5.751137947122777405e+04
1.954730000000000132e+02,5.739149860150623135e+04
1.935329999999999870e+02,5.755483909385865263e+04
1.915929999999999893e+02,5.757532094828502886e+04
1.896510000000000105e+02,5.760617375639051170e+04
1.877100000000000080e+02,5.754600300913095998e+04
1.857680000000000007e+02,5.784007825751389464e+04
1.838249999999999886e+02,5.787997937980885035e+04
1.818820000000000050e+02,5.825976162077963818e+04
1.799379999999999882e+02,5.816212957327168260e+04
1.779939999999999998e+02,5.842147856322323787e+04
1.760500000000000114e+02,5.887118859063435957e+04
1.741049999999999898e+02,5.893378412647377263e+04
1.721589999999999918e+02,5.901920504882303067e+04
1.702129999999999939e+02,5.940648684607390169e+04
1.682659999999999911e+02,5.967227386719306378e+04
1.663189999999999884e+02,5.995076168187220173e+04
1.643720000000000141e+02,6.003699029011125094e+04
1.624240000000000066e+02,6.048252391881229414e+04
1.604749999999999943e+02,6.074052244586877350e+04
1.585260000000000105e+02,6.114070160367653443e+04
1.565769999999999982e+02,6.131470139223555452e+04
1.546270000000000095e+02,6.164112587553471531e+04
1.526759999999999877e+02,6.176671493134216871e+04
1.507249999999999943e+02,6.186704445492506056e+04
1.487740000000000009e+02,6.226145444628336554e+04
1.468220000000000027e+02,6.228086880632572138e+04
1.448700000000000045e+02,6.243366355259290867e+04
1.429170000000000016e+02,6.231372250440115022e+04
1.409629999999999939e+02,6.322838553933048388e+04
1.390089999999999861e+02,6.323952879725811363e+04
1.370550000000000068e+02,6.292827227818401298e+04
1.350999999999999943e+02,6.309595963809337991e+04
1.331440000000000055e+02,6.288333075444090355e+04
1.311879999999999882e+02,6.364776193039300415e+04
1.292319999999999993e+02,6.347357316594965960e+04
1.272750000000000057e+02,6.365590795359786716e+04
1.253179999999999978e+02,6.370760271909111907e+04
1.233599999999999994e+02,6.380138087311504933e+04
1.214009999999999962e+02,6.319044229293631361e+04
1.194419999999999931e+02,6.296266352695815294e+04
1.174830000000000041e+02,6.305338457518059295e+04
1.155229999999999961e+02,6.205806868454035430e+04
1.135630000000000024e+02,6.185177252621577645e+04
1.116020000000000039e+02,6.142019926521693560e+04
1.096400000000000006e+02,6.180866877862240653e+04
1.076779999999999973e+02,6.184799786044837674e+04
1.057159999999999940e+02,6.123802651069486456e+04
1.037530000000000001e+02,6.030695773037223989e+04
1.017900000000000063e+02,6.043844843645983201e+04
9.982569999999999766e+01,6.108721442359941284e+04
9.786119999999999663e+01,6.158798836605275574e+04
9.589629999999999654e+01,6.233299880655996094e+04
9.393080000000000496e+01,6.358665425500950369e+04
9.196490000000000009e+01,6.430504608654057665e+04
8.999840000000000373e+01,6.434210279458356672e+04
8.803149999999999409e+01,6.419053577067727019e+04
8.606399999999999295e+01,6.470507349178561708e+04
8.409610000000000696e+01,6.433718736585533043e+04
8.212760000000000105e+01,6.288336585337555880e+04
8.015860000000000696e+01,6.095384462951046589e+04
7.818909999999999627e+01,5.947844363254862401e+04
7.621909999999999741e+01,5.861116280076294788e+04
7.424869999999999948e+01,5.787317783395802689e+04
7.227760000000000673e+01,5.555338138573327888e+04
7.030610000000000070e+01,5.019772067895678629e+04
6.833410000000000650e+01,4.213843989029135264e+04
6.636159999999999570e+01,3.161437895793152711e+04
6.438859999999999673e+01,2.068011782005620989e+04
6.241499999999999915e+01,1.204322062855568947e+04
6.044100000000000250e+01,6.218528889998789055e+03
5.846640000000000015e+01,2.416474965844713097e+03
