1.838309999999999945e+03,-7.063157031618466135e+02
1.836750000000000000e+03,-3.206616935094207292e+02
1.835180000000000064e+03,1.144244019259494962e+02
1.833609999999999900e+03,5.805359416973078623e+01
1.832049999999999955e+03,1.097383417016244493e+02
1.830480000000000018e+03,1.450540900029009208e+02
1.828910000000000082e+03,4.169129351125739049e+02
1.827339999999999918e+03,2.175148770306404913e+02
1.825779999999999973e+03,-5.426178308829548769e+00
1.824210000000000036e+03,-7.633768033325031865e+01
1.822640000000000100e+03,5.694939144506934099e+02
1.821069999999999936e+03,4.484686060430831276e+02
1.819500000000000000e+03,6.897863944438431645e+02
1.817930000000000064e+03,2.918472796529822517e+02
1.816359999999999900e+03,3.068512616705556866e+02
1.814789999999999964e+03,9.359834049650817178e+01
1.813220000000000027e+03,1.784885161308629904e+02
1.811650000000000091e+03,5.795217885735910386e+02
1.810079999999999927e+03,-1.379018421752261929e+02
1.808500000000000000e+03,4.009973110241116956e+01
1.806930000000000064e+03,4.257619315296469722e+02
1.805359999999999900e+03,3.783672287652734667e+02
1.803789999999999964e+03,-8.108437719070934691e+01
1.802210000000000036e+03,-8.311223119156784378e+01
1.800640000000000100e+03,-1.648780059714626987e+02
1.799069999999999936e+03,2.160993160570651526e+02
1.797490000000000009e+03,2.504993004100251710e+02
1.795920000000000073e+03,-5.624375463853939436e+02
1.794339999999999918e+03,-2.595524580463097664e+02
1.792769999999999982e+03,5.539652633435616735e+01
1.791190000000000055e+03,-1.014332813404325861e+02
1.789619999999999891e+03,7.220153421635041013e+01
1.788039999999999964e+03,-3.405431694723374676e+02
1.786470000000000027e+03,6.417747726049856283e+01
1.784890000000000100e+03,-5.826821224420418730e+02
1.783309999999999945e+03,-1.461993525261641480e+02
1.781740000000000009e+03,3.074985975044546649e+01
1.780160000000000082e+03,4.917177336524619022e+02
1.778579999999999927e+03,4.784279771729197819e+02
1.777000000000000000e+03,5.746805903117929120e+02
1.775430000000000064e+03,9.282011024998646462e+02
1.773849999999999909e+03,1.003938819624876487e+03
1.772269999999999982e+03,1.064618906368297758e+03
1.770690000000000055e+03,1.462241362730172114e+03
1.769109999999999900e+03,1.272206188710508286e+03
1.767529999999999973e+03,7.993133843092509778e+02
1.765950000000000045e+03,9.521629495264351135e+02
1.764369999999999891e+03,1.113154884362040320e+03
1.762789999999999964e+03,1.080289188816110254e+03
1.761210000000000036e+03,1.052765862888598349e+03
1.759619999999999891e+03,7.500557296562765259e+02
1.758039999999999964e+03,4.866167782163975062e+02
1.756460000000000036e+03,4.109201963949453784e+02
1.754880000000000109e+03,8.043659841919288738e+02
1.753289999999999964e+03,3.392235033785545966e+02
1.751710000000000036e+03,1.887536656631564256e+02
1.750130000000000109e+03,-3.317380243378283922e+01
1.748539999999999964e+03,-1.226906356973777292e+02
1.746960000000000036e+03,-2.343337293067306746e+02
1.745369999999999891e+03,-4.899669198897463502e+02
1.743789999999999964e+03,-4.345256390114518581e+02
1.742200000000000045e+03,-6.224751869139145128e+02
1.740619999999999891e+03,-8.957495315479900455e+02
1.739029999999999973e+03,-1.218215436769838561e+03
1.737450000000000045e+03,-1.046605406916307402e+03
1.735859999999999900e+03,-1.074187669457576703e+03
1.734269999999999982e+03,-1.399828294187493157e+03
1.732690000000000055e+03,-1.340791884977152222e+03
1.731099999999999909e+03,-1.467348867026434164e+03
1.729509999999999991e+03,-1.236964211264348705e+03
1.727920000000000073e+03,-1.448637917690852191e+03
1.726329999999999927e+03,-1.143769986305967905e+03
1.724750000000000000e+03,-1.309423188000451773e+03
1.723160000000000082e+03,-1.068671613935002824e+03
1.721569999999999936e+03,-7.615784020581049845e+02
1.719980000000000018e+03,-9.801435523698746692e+02
1.718390000000000100e+03,-9.157670648702332983e+02
1.716799999999999955e+03,-7.810489395591575885e+02
1.715210000000000036e+03,-7.327891764367232099e+02
1.713609999999999900e+03,-1.178127574016631115e+03
1.712019999999999982e+03,-1.004384902329184115e+03
1.710430000000000064e+03,-9.839005928303668043e+02
1.708839999999999918e+03,-4.174746455201093340e+02
1.707250000000000000e+03,-4.843070603984961053e+02
1.705650000000000091e+03,-7.969394735767127713e+02
1.704059999999999945e+03,-5.556889798900665483e+02
1.702470000000000027e+03,5.010315160793834366e+01
1.700869999999999891e+03,-9.305818675769842230e+00
1.699279999999999973e+03,1.679692213872476714e+02
1.697690000000000055e+03,2.659858992616791511e+02
1.696089999999999918e+03,-6.779962812755547930e+01
1.694500000000000000e+03,-7.700041688149212860e+00
1.692900000000000091e+03,-1.560339693652349524e+01
1.691299999999999955e+03,1.694341492023813771e+02
1.689710000000000036e+03,6.211579149604222039e+02
1.688109999999999900e+03,6.386776332402223488e+02
1.686509999999999991e+03,7.027382529072638135e+02
1.684920000000000073e+03,7.392861979839071864e+02
1.683319999999999936e+03,1.248289897918730276e+02
1.681720000000000027e+03,6.161126829870918300e+02
1.680119999999999891e+03,9.903372775696043391e+02
1.678529999999999973e+03,8.966506727184314514e+02
1.676930000000000064e+03,1.488557439441821771e+03
1.675329999999999927e+03,9.798451075524935732e+02
1.673730000000000018e+03,9.090136770504032029e+02
1.672130000000000109e+03,1.332023147935615270e+03
1.670529999999999973e+03,1.073573520208112313e+03
1.668930000000000064e+03,9.280447938678553328e+02
1.667329999999999927e+03,1.110676968914907775e+03
1.665730000000000018e+03,1.333510045349234133e+03
1.664130000000000109e+03,1.143324023170804139e+03
1.662519999999999982e+03,1.211887309537312831e+03
1.660920000000000073e+03,1.233662720767097198e+03
1.659319999999999936e+03,1.244739033384234062e+03
1.657720000000000027e+03,7.283362473885936197e+02
1.656109999999999900e+03,8.673812901639757911e+02
1.654509999999999991e+03,6.421799375765695004e+02
1.652910000000000082e+03,7.049194863764278125e+02
1.651299999999999955e+03,6.151257535398181062e+02
1.649700000000000045e+03,3.797467357479181373e+02
1.648089999999999918e+03,3.653936952783114975e+02
1.646490000000000009e+03,1.971761108945938759e+02
1.644880000000000109e+03,4.457437627920298837e+02
1.643279999999999973e+03,-7.945238818340294529e+01
1.641670000000000073e+03,1.923959560810180847e+02
1.640059999999999945e+03,3.495044606915616896e+02
1.638460000000000036e+03,5.620102751452650409e+02
1.636849999999999909e+03,-4.802052787716093007e+01
1.635240000000000009e+03,-2.393511705535638612e+02
1.633630000000000109e+03,-2.960016528838605154e+02
1.632029999999999973e+03,-2.139733409800246591e+02
1.630420000000000073e+03,-9.352313094328565057e+01
1.628809999999999945e+03,2.106723943950782996e+01
1.627200000000000045e+03,-2.358222983160521835e+01
1.625589999999999918e+03,8.238846124337578658e+01
1.623980000000000018e+03,-1.951206873355695279e+02
1.622369999999999891e+03,-4.071296755684597883e+02
1.620759999999999991e+03,-3.860385034552891739e+02
1.619150000000000091e+03,-1.067487170995984343e+03
1.617539999999999964e+03,-8.404356781906244578e+02
1.615930000000000064e+03,-8.006040250391961308e+02
1.614309999999999945e+03,-8.078549338532757247e+02
1.612700000000000045e+03,-1.104803331684583100e+03
1.611089999999999918e+03,-8.932715691697667353e+02
1.609480000000000018e+03,-1.231379646308909287e+03
1.607859999999999900e+03,-1.357911774421547307e+03
1.606250000000000000e+03,-1.499339902543390053e+03
1.604640000000000100e+03,-1.542587870319170179e+03
1.603019999999999982e+03,-1.593501006401595077e+03
1.601410000000000082e+03,-1.552529025160067249e+03
1.599789999999999964e+03,-1.563962957883515628e+03
1.598180000000000064e+03,-1.231291027624713024e+03
1.596559999999999945e+03,-9.463257569891138701e+02
1.594940000000000055e+03,-1.111041071665778873e+03
1.593329999999999927e+03,-1.482469403718438116e+03
1.591710000000000036e+03,-1.449905515036080033e+03
1.590089999999999918e+03,-1.367062211665848736e+03
1.588480000000000018e+03,-1.456530806030103122e+03
1.586859999999999900e+03,-1.449128299300893559e+03
1.585240000000000009e+03,-1.401346377883892274e+03
1.583619999999999891e+03,-1.475505041779106250e+03
1.582000000000000000e+03,-1.483904290986509295e+03
1.580380000000000109e+03,-1.255884125506141572e+03
1.578759999999999991e+03,-1.290884545337932650e+03
1.577150000000000091e+03,-8.211942473288072506e+02
1.575519999999999982e+03,-8.952271409381646663e+02
1.573900000000000091e+03,-6.738693167065648595e+02
1.572279999999999973e+03,-1.020092077787150629e+03
1.570660000000000082e+03,-8.723354241799679585e+02
1.569039999999999964e+03,-8.435393558849900728e+02
1.567420000000000073e+03,-5.467038729022024199e+02
1.565799999999999955e+03,-6.300689752316102386e+02
1.564170000000000073e+03,-5.784489602021785686e+02
1.562549999999999955e+03,-3.348156071393896127e+02
1.560930000000000064e+03,-4.157228393888217397e+02
1.559299999999999955e+03,-2.582260785381076857e+02
1.557680000000000064e+03,5.682514460463426076e+01
1.556059999999999945e+03,5.355957824352226453e+02
1.554430000000000064e+03,2.710492891071189661e+02
1.552809999999999945e+03,4.218382329869200476e+00
1.551180000000000064e+03,1.329895941185968695e+02
1.549549999999999955e+03,1.133194703197950730e+02
1.547930000000000064e+03,2.921260596391366562e+02
1.546299999999999955e+03,3.416936409571353579e+02
1.544680000000000064e+03,2.191586856686481042e+02
1.543049999999999955e+03,4.476039721035340335e+02
1.541420000000000073e+03,2.229279229508101707e+02
1.539789999999999964e+03,3.429505382105271565e+02
1.538170000000000073e+03,9.016321197230281541e+02
1.536539999999999964e+03,6.122324400996003533e+02
1.534910000000000082e+03,7.621514248886087444e+02
1.533279999999999973e+03,9.752090740900457604e+02
1.531650000000000091e+03,9.130053877039317740e+02
1.530019999999999982e+03,1.177400365730267367e+03
1.528390000000000100e+03,7.316940081690554507e+02
1.526759999999999991e+03,1.014606315020297188e+03
1.525130000000000109e+03,1.256677286283942522e+03
1.523500000000000000e+03,1.351186921960048494e+03
1.521859999999999900e+03,1.102111157288803952e+03
1.520230000000000018e+03,1.030897745497830329e+03
1.518599999999999909e+03,1.161742998119327240e+03
1.516970000000000027e+03,1.027406915153245791e+03
1.515329999999999927e+03,1.281443924363469705e+03
1.513700000000000045e+03,9.630647939303307794e+02
1.512069999999999936e+03,1.181064327909640269e+03
1.510430000000000064e+03,1.090135822880867636e+03
1.508799999999999955e+03,1.047572309393130126e+03
1.507160000000000082e+03,1.213400002004826092e+03
1.505529999999999973e+03,1.130633441050042165e+03
1.503890000000000100e+03,6.875573313022468938e+02
1.502259999999999991e+03,9.400077228803565959e+02
1.500619999999999891e+03,7.572078107731067576e+02
1.498980000000000018e+03,2.352858081858285004e+02
1.497349999999999909e+03,4.214114404173888033e+02
1.495710000000000036e+03,3.353856354706076672e+02
1.494069999999999936e+03,5.429977400438656332e+02
1.492430000000000064e+03,4.233677541370998370e+02
1.490789999999999964e+03,2.524756777503498597e+02
1.489160000000000082e+03,2.685731268763192929e+02
1.487519999999999982e+03,4.599372481300815707e+02
1.485880000000000109e+03,3.132792789038503543e+02
1.484240000000000009e+03,2.418992191976285540e+02
1.482599999999999909e+03,2.207770690114120953e+02
1.480960000000000036e+03,7.675928283451794414e+02
1.479319999999999936e+03,-2.344935028010222595e+02
1.477670000000000073e+03,-1.867561906233750051e+02
1.476029999999999973e+03,-1.460070813300553709e+02
1.474390000000000100e+03,-2.191400625167443650e+02
1.472750000000000000e+03,-8.511513418339018244e+01
1.471109999999999900e+03,-2.787322963300393894e+02
1.469460000000000036e+03,-4.761677104638220044e+02
1.467819999999999936e+03,-8.969494321709498763e+02
1.466180000000000064e+03,-6.722932443580648396e+02
1.464529999999999973e+03,-8.421964466423087288e+02
1.462890000000000100e+03,-9.388848183899244759e+02
1.461240000000000009e+03,-9.684733397441596026e+02
1.459599999999999909e+03,-1.128086271052219672e+03
1.457950000000000045e+03,-1.119400111476439633e+03
1.456309999999999945e+03,-1.047917602344983607e+03
1.454660000000000082e+03,-7.012567618392058648e+02
1.453009999999999991e+03,-9.750187713229097426e+02
1.451369999999999891e+03,-7.216832908323995071e+02
1.449720000000000027e+03,-7.764906193861097563e+02
1.448069999999999936e+03,-5.625807979293167591e+02
1.446420000000000073e+03,-3.753138264620210975e+02
1.444769999999999982e+03,-5.617497049842495471e+02
1.443119999999999891e+03,-1.841884334959759144e+02
1.441480000000000018e+03,-1.318273888878902653e+02
1.439829999999999927e+03,-2.302314364696067059e+02
1.438180000000000064e+03,-2.558183340408286313e+02
1.436529999999999973e+03,-3.725680816015665187e+02
1.434880000000000109e+03,-7.218067915183200967e+01
1.433220000000000027e+03,-1.044206543460459216e+02
1.431569999999999936e+03,-3.296593327843293082e+02
1.429920000000000073e+03,-3.574208612121292390e+02
1.428269999999999982e+03,-1.524852396294154460e+02
1.426619999999999891e+03,-3.582324680362362415e+02
1.424960000000000036e+03,9.321101905929390341e+01
1.423309999999999945e+03,-1.343222902355482802e+02
1.421660000000000082e+03,1.051015504800598137e+02
1.420000000000000000e+03,9.737496166242635809e+01
1.418349999999999909e+03,1.810327214900171384e+02
1.416700000000000045e+03,6.722763132808904629e+01
1.415039999999999964e+03,3.443109665972879156e+02
1.413380000000000109e+03,6.307068775035440922e+01
1.411730000000000018e+03,1.378362858018517727e+02
1.410069999999999936e+03,2.214891619403206278e+02
1.408420000000000073e+03,5.248867910377157386e+01
1.406759999999999991e+03,1.088947102275851648e+02
1.405099999999999909e+03,8.753712723529315554e+01
1.403450000000000045e+03,2.223273326121707214e+02
1.401789999999999964e+03,4.098629046052519698e+02
1.400130000000000109e+03,6.979748624821804697e+02
1.398470000000000027e+03,5.681832062430621590e+02
1.396809999999999945e+03,5.896879358878213679e+02
1.395150000000000091e+03,4.480690514164743945e+02
1.393490000000000009e+03,8.319065528290229850e+02
1.391829999999999927e+03,7.798404401254811091e+02
1.390170000000000073e+03,9.575507133058272302e+02
1.388509999999999991e+03,9.870773723700694973e+02
1.386849999999999909e+03,7.930404173182323575e+02
1.385190000000000055e+03,7.412398481502605136e+02
1.383529999999999973e+03,9.421556648662080988e+02
1.381859999999999900e+03,9.635314831523864996e+02
1.380200000000000045e+03,7.420596884185652016e+02
1.378539999999999964e+03,9.172642795686115278e+02
1.376880000000000109e+03,6.257852566025831038e+02
1.375210000000000036e+03,4.669247000279865460e+02
1.373549999999999955e+03,5.527380656121822540e+02
1.371880000000000109e+03,3.058691288441332290e+02
1.370220000000000027e+03,8.381488297856412828e+01
1.368549999999999955e+03,3.166775660170824267e+02
1.366890000000000100e+03,4.687557087017048616e+02
1.365220000000000027e+03,4.816900115467869909e+02
1.363559999999999945e+03,2.390605427816917654e+02
1.361890000000000100e+03,1.847864654332806822e+02
1.360220000000000027e+03,3.393080052251461893e+02
1.358549999999999955e+03,6.058451621572312433e+02
1.356890000000000100e+03,3.915200872749846894e+02
1.355220000000000027e+03,3.956488640135939931e+02
1.353549999999999955e+03,5.575325789245835040e+01
1.351880000000000109e+03,1.435332689115311950e+02
1.350210000000000036e+03,1.626288970708264969e+02
1.348539999999999964e+03,-1.090398576296283863e+02
1.346869999999999891e+03,2.969270048101316206e+02
1.345200000000000045e+03,3.450094843900587875e+02
1.343529999999999973e+03,3.828875811102770967e+02
1.341859999999999900e+03,8.288129497073532548e+01
1.340190000000000055e+03,2.111106259713560576e+02
1.338519999999999982e+03,-4.686442588776117191e+01
1.336849999999999909e+03,3.611613939332892187e+01
1.335170000000000073e+03,-8.135484107023512479e+01
1.333500000000000000e+03,-7.102342703477188479e+01
1.331829999999999927e+03,-3.024763958591211122e+02
1.330150000000000091e+03,-4.787020693149679573e+02
1.328480000000000018e+03,-2.428441893849521875e+02
1.326799999999999955e+03,-7.119597874471655814e+02
1.325130000000000109e+03,-1.015331058762836619e+03
1.323450000000000045e+03,-8.235965814314695308e+02
1.321779999999999973e+03,-6.995370039927947801e+02
1.320099999999999909e+03,-7.579924512678408064e+02
1.318430000000000064e+03,-4.965020250748202670e+02
1.316750000000000000e+03,-5.320073969562799903e+02
1.315069999999999936e+03,-3.668979250582633540e+02
1.313400000000000091e+03,-2.470414184967812616e+02
1.311720000000000027e+03,-1.702818712051812327e+02
1.310039999999999964e+03,-2.946674801341141574e+02
1.308359999999999900e+03,-3.317582452835922595e+02
1.306680000000000064e+03,-5.347341666535940021e+02
1.305000000000000000e+03,-3.344952442440990126e+02
1.303319999999999936e+03,-7.481414780551422155e+02
1.301640000000000100e+03,-1.298328680867271032e+02
1.299960000000000036e+03,-3.133694143388129305e+02
1.298279999999999973e+03,-4.049311168114363682e+02
1.296599999999999909e+03,-2.046979755045904312e+02
1.294920000000000073e+03,-1.797299904183164472e+02
1.293240000000000009e+03,-6.470716155252011959e+01
1.291559999999999945e+03,-1.551094889072555816e+02
1.289869999999999891e+03,-2.257145930515835062e+02
1.288190000000000055e+03,-4.808762068203941453e+01
1.286509999999999991e+03,-1.091258045330032473e+02
1.284819999999999936e+03,-2.343879309860349167e+02
1.283140000000000100e+03,-1.507368151127302554e+02
1.281450000000000045e+03,-3.733041981930728070e+01
1.279769999999999982e+03,1.221899957783316495e+02
1.278079999999999927e+03,-5.649508718178549316e+01
1.276400000000000091e+03,-1.691253718598454725e+02
1.274710000000000036e+03,4.971806692650716286e+01
1.273029999999999973e+03,3.355970819727372145e+02
1.271339999999999918e+03,5.488290425055602100e+02
1.269650000000000091e+03,5.904150688400113722e+02
1.267960000000000036e+03,5.139951609761337750e+02
1.266279999999999973e+03,5.126923876362998271e+02
1.264589999999999918e+03,5.491410015188739635e+02
1.262900000000000091e+03,7.389436812030762667e+02
1.261210000000000036e+03,2.951404266889294377e+02
1.259519999999999982e+03,6.003112379764497746e+02
1.257829999999999927e+03,7.307561150655965321e+02
1.256140000000000100e+03,8.158350579563266365e+02
1.254450000000000045e+03,6.805280666487524286e+02
1.252759999999999991e+03,3.252951411428221036e+02
1.251069999999999936e+03,4.686162814385024831e+02
1.249380000000000109e+03,7.667314875358424615e+02
1.247680000000000064e+03,5.790733991373708704e+02
1.245990000000000009e+03,6.102163466947968118e+02
1.244299999999999955e+03,7.940733600538660539e+02
1.242609999999999900e+03,9.568044392145820893e+02
1.240910000000000082e+03,1.042880660998198437e+03
1.239220000000000027e+03,1.052599481619006838e+03
1.237519999999999982e+03,1.158962662267804262e+03
1.235829999999999927e+03,9.422892243487003725e+02
1.234130000000000109e+03,1.086939363862678874e+03
1.232440000000000055e+03,1.034033667403666186e+03
1.230740000000000009e+03,1.048850765782844974e+03
1.229049999999999955e+03,9.302128107839525910e+02
1.227349999999999909e+03,9.567968680282792775e+02
1.225650000000000091e+03,8.524942084793583490e+02
1.223960000000000036e+03,1.070917670599010307e+03
1.222259999999999991e+03,9.324819699153013062e+02
1.220559999999999945e+03,1.348779552438267274e+03
1.218859999999999900e+03,1.362790418167991447e+03
1.217160000000000082e+03,1.285234567104431335e+03
1.215460000000000036e+03,1.391591999247611966e+03
1.213759999999999991e+03,1.473742714597537997e+03
1.212059999999999945e+03,1.537626713154182653e+03
1.210359999999999900e+03,1.627963994917547097e+03
1.208660000000000082e+03,1.853114559887646465e+03
1.206960000000000036e+03,2.017938408064466785e+03
1.205259999999999991e+03,1.953175539448042400e+03
1.203559999999999945e+03,1.911045954038330819e+03
1.201859999999999900e+03,2.154969651835344848e+03
1.200150000000000091e+03,2.226888300053105922e+03
1.198450000000000045e+03,2.178778171811834909e+03
1.196750000000000000e+03,1.977781326777345384e+03
1.195039999999999964e+03,2.332798252499851515e+03
1.193339999999999918e+03,2.593007581427067635e+03
1.191630000000000109e+03,2.690469893899309682e+03
1.189930000000000064e+03,3.061585396788272192e+03
1.188220000000000027e+03,3.189633096010278678e+03
1.186519999999999982e+03,3.273454772860961384e+03
1.184809999999999945e+03,3.245767858832710772e+03
1.183099999999999909e+03,3.951133440799196251e+03
1.181400000000000091e+03,3.900834182366612367e+03
1.179690000000000055e+03,3.776865151082834927e+03
1.177980000000000018e+03,4.035948615793793579e+03
1.176269999999999982e+03,4.371304576499518589e+03
1.174569999999999936e+03,4.489177273538676673e+03
1.172859999999999900e+03,4.586058620994153898e+03
1.171150000000000091e+03,4.943772464444307843e+03
1.169440000000000055e+03,4.975278803889246774e+03
1.167730000000000018e+03,5.020457639328917139e+03
1.166019999999999982e+03,5.345088970763361431e+03
1.164309999999999945e+03,5.497992798192513874e+03
1.162599999999999909e+03,5.924589121616387274e+03
1.160880000000000109e+03,5.949450542614154983e+03
1.159170000000000073e+03,6.420691463267270592e+03
1.157460000000000036e+03,6.800024879915115889e+03
1.155750000000000000e+03,6.821850792557714158e+03
1.154029999999999973e+03,6.943580221424606862e+03
1.152319999999999936e+03,7.221810731296412996e+03
1.150609999999999900e+03,7.716093737162955222e+03
1.148890000000000100e+03,7.593979072664456908e+03
1.147180000000000064e+03,7.649306675760220969e+03
1.145460000000000036e+03,7.861895816661883146e+03
1.143750000000000000e+03,8.162248016986850416e+03
1.142029999999999973e+03,8.375780963288649218e+03
1.140319999999999936e+03,8.414237760842850548e+03
1.138599999999999909e+03,8.946794512544787722e+03
1.136880000000000109e+03,9.204742968412392656e+03
1.135160000000000082e+03,9.578203128445689799e+03
1.133450000000000045e+03,9.898888725698052440e+03
1.131730000000000018e+03,9.801392691131506581e+03
1.130009999999999991e+03,1.022850836073060054e+04
1.128289999999999964e+03,1.061523573449537798e+04
1.126569999999999936e+03,1.069703481242584530e+04
1.124849999999999909e+03,1.086160559452195594e+04
1.123130000000000109e+03,1.105168808078372967e+04
1.121410000000000082e+03,1.107224227121120202e+04
1.119690000000000055e+03,1.144138816580433922e+04
1.117970000000000027e+03,1.161810576456313720e+04
1.116250000000000000e+03,1.163435506748761691e+04
1.114529999999999973e+03,1.234427607457779231e+04
1.112799999999999955e+03,1.236833028795455175e+04
1.111079999999999927e+03,1.260783430630723888e+04
1.109359999999999900e+03,1.296531002882559551e+04
1.107630000000000109e+03,1.346691776411564206e+04
1.105910000000000082e+03,1.350323649789651245e+04
1.104190000000000055e+03,1.378278693584307621e+04
1.102460000000000036e+03,1.403016819304637465e+04
1.100740000000000009e+03,1.424076164225548564e+04
1.099009999999999991e+03,1.444268511427517660e+04
1.097279999999999973e+03,1.448483949401436257e+04
1.095559999999999945e+03,1.468612726158288569e+04
1.093829999999999927e+03,1.489004385613846534e+04
1.092099999999999909e+03,1.504873135841358453e+04
1.090380000000000109e+03,1.495795344434150320e+04
1.088650000000000091e+03,1.560668316143299307e+04
1.086920000000000073e+03,1.585960378624403529e+04
1.085190000000000055e+03,1.569505531877457543e+04
1.083460000000000036e+03,1.646163775902466296e+04
1.081730000000000018e+03,1.666703110699426179e+04
1.080000000000000000e+03,1.696159536268337251e+04
1.078269999999999982e+03,1.728581052609202743e+04
1.076539999999999964e+03,1.730619659722021606e+04
1.074809999999999945e+03,1.759229357606788835e+04
1.073079999999999927e+03,1.759264146263510338e+04
1.071349999999999909e+03,1.788858025692183583e+04
1.069609999999999900e+03,1.799634149046670791e+04
1.067880000000000109e+03,1.836128170081511780e+04
1.066150000000000091e+03,1.866401281888310041e+04
1.064420000000000073e+03,1.893573484467058006e+04
1.062680000000000064e+03,1.927375770989828015e+04
1.060950000000000045e+03,1.966856115174746083e+04
1.059210000000000036e+03,2.023798463197362435e+04
1.057480000000000018e+03,2.019202948988452408e+04
1.055740000000000009e+03,2.034699358510915772e+04
1.054009999999999991e+03,2.046687985908176051e+04
1.052269999999999982e+03,2.084716456930489221e+04
1.050529999999999973e+03,2.081125938618428336e+04
1.048799999999999955e+03,2.122479758456075797e+04
1.047059999999999945e+03,2.159191301643865881e+04
1.045319999999999936e+03,2.164787855497283454e+04
1.043579999999999927e+03,2.180669420016332151e+04
1.041849999999999909e+03,2.202429483128586435e+04
1.040109999999999900e+03,2.242649109147482523e+04
1.038369999999999891e+03,2.231391745832006563e+04
1.036630000000000109e+03,2.301213393182160507e+04
1.034890000000000100e+03,2.309854051197945955e+04
1.033150000000000091e+03,2.308779719879358163e+04
1.031410000000000082e+03,2.334330399226403097e+04
1.029660000000000082e+03,2.363956320131379471e+04
1.027920000000000073e+03,2.367658980641095695e+04
1.026180000000000064e+03,2.375116651816438389e+04
1.024440000000000055e+03,2.406585333657411684e+04
1.022690000000000055e+03,2.429217096151115402e+04
1.020950000000000045e+03,2.443361759154758329e+04
1.019210000000000036e+03,2.472893432824034244e+04
1.017460000000000036e+03,2.517306066409416962e+04
1.015720000000000027e+03,2.508201721241361520e+04
1.013970000000000027e+03,2.512146255421384558e+04
1.012230000000000018e+03,2.557697891416000493e+04
1.010480000000000018e+03,2.537452326190664462e+04
1.008740000000000009e+03,2.580083943347951572e+04
1.006990000000000009e+03,2.572322278717254812e+04
1.005240000000000009e+03,2.590575544184157479e+04
1.003500000000000000e+03,2.581536113001156627e+04
1.001750000000000000e+03,2.564533279062698421e+04
1.000000000000000000e+03,2.569641375221841736e+04
9.982519999999999527e+02,2.605556500341044739e+04
9.965030000000000427e+02,2.594547518242985825e+04
9.947540000000000191e+02,2.599777474320105102e+04
9.930040000000000191e+02,2.577001307029419695e+04
9.912540000000000191e+02,2.608974069836336275e+04
9.895030000000000427e+02,2.582582693115666189e+04
9.877519999999999527e+02,2.596608238410401100e+04
9.860009999999999764e+02,2.599406705720537138e+04
9.842490000000000236e+02,2.586823013291826646e+04
9.824969999999999573e+02,2.592252234791704541e+04
9.807440000000000282e+02,2.593343280374490132e+04
9.789919999999999618e+02,2.560200325686982251e+04
9.772380000000000564e+02,2.593552089051531948e+04
9.754840000000000373e+02,2.551220750157193106e+04
9.737300000000000182e+02,2.541886309003962378e+04
9.719759999999999991e+02,2.516112765591840434e+04
9.702210000000000036e+02,2.515225005782383960e+04
9.684650000000000318e+02,2.480193017421137483e+04
9.667100000000000364e+02,2.448725032841079519e+04
9.649539999999999509e+02,2.437890811603949260e+04
9.631970000000000027e+02,2.425556341548357886e+04
9.614400000000000546e+02,2.395326744918024633e+04
9.596829999999999927e+02,2.409068021712954214e+04
9.579249999999999545e+02,2.391171029408903269e+04
9.561670000000000300e+02,2.393188902415593475e+04
9.544080000000000155e+02,2.362034490089653991e+04
9.526490000000000009e+02,2.353628934955327713e+04
9.508899999999999864e+02,2.307738237012609898e+04
9.491299999999999955e+02,2.307593233433655405e+04
9.473700000000000045e+02,2.289407078922561050e+04
9.456090000000000373e+02,2.239624602523109206e+04
9.438479999999999563e+02,2.226402967063153483e+04
9.420869999999999891e+02,2.166262172542688495e+04
9.403250000000000455e+02,2.165813035807177221e+04
9.385629999999999882e+02,2.149324731878174498e+04
9.367999999999999545e+02,2.101140069463536202e+04
9.350370000000000346e+02,2.079120231717805291e+04
9.332740000000000009e+02,2.052173218640977575e+04
9.315099999999999909e+02,2.019403826728742570e+04
9.297450000000000045e+02,1.989864043764305097e+04
9.279809999999999945e+02,1.970152280833179975e+04
9.262160000000000082e+02,1.952526118703016255e+04
9.244500000000000455e+02,1.894435545150098915e+04
9.226839999999999691e+02,1.880093771825580916e+04
9.209180000000000064e+02,1.835322798729458736e+04
9.191509999999999536e+02,1.791541393826178683e+04
9.173840000000000146e+02,1.767692780995224894e+04
9.156169999999999618e+02,1.751634960236599727e+04
9.138490000000000464e+02,1.683098687274865370e+04
9.120810000000000173e+02,1.639135198224773922e+04
9.103120000000000118e+02,1.627563240645585756e+04
9.085430000000000064e+02,1.608844058812732692e+04
9.067730000000000246e+02,1.535772392115554248e+04
9.050030000000000427e+02,1.506375492994791421e+04
9.032329999999999472e+02,1.453213361450442608e+04
9.014619999999999891e+02,1.455336724611195677e+04
8.996910000000000309e+02,1.412968847173823451e+04
8.979189999999999827e+02,1.357104448087859782e+04
8.961470000000000482e+02,1.315228800224613951e+04
8.943750000000000000e+02,1.297519903584090207e+04
8.926019999999999754e+02,1.240904464841310983e+04
8.908289999999999509e+02,1.199565769137480675e+04
8.890549999999999500e+02,1.182462514959234977e+04
8.872809999999999491e+02,1.142625995631546539e+04
8.855069999999999482e+02,1.096774211154413206e+04
8.837319999999999709e+02,1.085231847726119304e+04
8.819569999999999936e+02,1.061554210955376038e+04
8.801810000000000400e+02,1.044279978842839773e+04
8.784049999999999727e+02,1.015558465190229617e+04
8.766280000000000427e+02,9.891583397959628201e+03
8.748519999999999754e+02,9.587942589632395539e+03
8.730739999999999554e+02,9.452262197804848256e+03
8.712970000000000255e+02,9.062842251592737739e+03
8.695180000000000291e+02,8.925922475674567977e+03
8.677400000000000091e+02,8.882603145371824212e+03
8.659610000000000127e+02,8.639237287309610110e+03
8.641810000000000400e+02,8.652304778281155450e+03
8.624020000000000437e+02,8.449192755937052425e+03
8.606209999999999809e+02,8.271600328922046174e+03
8.588410000000000082e+02,8.299248388591382536e+03
8.570599999999999454e+02,8.206229550742449646e+03
8.552780000000000200e+02,8.199183692029982922e+03
8.534969999999999573e+02,8.140118361116976303e+03
8.517140000000000555e+02,8.010532049921777798e+03
8.499320000000000164e+02,8.125186266526048712e+03
8.481490000000000009e+02,7.961373215437721228e+03
8.463650000000000091e+02,7.999532773173028545e+03
8.445810000000000173e+02,8.132658858035531011e+03
8.427970000000000255e+02,8.142411470025253948e+03
8.410119999999999436e+02,8.262036484916854533e+03
8.392269999999999754e+02,8.335907944543898338e+03
8.374410000000000309e+02,8.340351642243120295e+03
8.356549999999999727e+02,8.432641702239801816e+03
8.338690000000000282e+02,8.735398124533974624e+03
8.320819999999999936e+02,8.882166578747746826e+03
8.302949999999999591e+02,9.170401312774869439e+03
8.285069999999999482e+02,9.525387913707178086e+03
8.267190000000000509e+02,9.495140711922562332e+03
8.249310000000000400e+02,9.907159707420993072e+03
8.231420000000000528e+02,9.960410363441209483e+03
8.213529999999999518e+02,1.054290713416801736e+04
8.195629999999999882e+02,1.067255540021749766e+04
8.177730000000000246e+02,1.088086969835094351e+04
8.159819999999999709e+02,1.115981532651561429e+04
8.141910000000000309e+02,1.159070690409548115e+04
8.123999999999999773e+02,1.209508443109049404e+04
8.106079999999999472e+02,1.237215308138705586e+04
8.088160000000000309e+02,1.283764759838379541e+04
8.070230000000000246e+02,1.329429307320594671e+04
8.052300000000000182e+02,1.349362433196714119e+04
8.034370000000000118e+02,1.420746137466738583e+04
8.016430000000000291e+02,1.415564916823247768e+04
7.998479999999999563e+02,1.467932758841679606e+04
7.980539999999999736e+02,1.497368674283018481e+04
7.962590000000000146e+02,1.520633644100929087e+04
7.944629999999999654e+02,1.577031655863930791e+04
7.926670000000000300e+02,1.575498221164791903e+04
7.908709999999999809e+02,1.634077340003512654e+04
7.890739999999999554e+02,1.640627480056638160e+04
7.872770000000000437e+02,1.674850165353040211e+04
7.854790000000000418e+02,1.667427855270064902e+04
7.836810000000000400e+02,1.690536082131166040e+04
7.818819999999999482e+02,1.727009297009874717e+04
7.800839999999999463e+02,1.748226593608377880e+04
7.782839999999999918e+02,1.764217312688071252e+04
7.764840000000000373e+02,1.785730552099590568e+04
7.746839999999999691e+02,1.790840311842939991e+04
7.728840000000000146e+02,1.810250591918113787e+04
7.710829999999999700e+02,1.817183818468725804e+04
7.692809999999999491e+02,1.840555979021732492e+04
7.674790000000000418e+02,1.846066643275848037e+04
7.656770000000000209e+02,1.869997811231071682e+04
7.638750000000000000e+02,1.867671482887402817e+04
7.620710000000000264e+02,1.887210468925249734e+04
7.602680000000000291e+02,1.915683540840574278e+04
7.584640000000000555e+02,1.933477505146869225e+04
7.566599999999999682e+02,1.951205956505086942e+04
7.548550000000000182e+02,1.986023283595852263e+04
7.530499999999999545e+02,1.998109089407019201e+04
7.512440000000000282e+02,2.010027754283080139e+04
7.494379999999999882e+02,2.004824889543406607e+04
7.476309999999999718e+02,2.025952867191736004e+04
7.458250000000000455e+02,2.049884939051370020e+04
7.440170000000000528e+02,2.032844208618931589e+04
7.422100000000000364e+02,2.067439572397798474e+04
7.404009999999999536e+02,2.076976108848478907e+04
7.385929999999999609e+02,2.102368739510463638e+04
7.367839999999999918e+02,2.113712170833600248e+04
7.349740000000000464e+02,2.109274390289444273e+04
7.331639999999999873e+02,2.138291046738837758e+04
7.313540000000000418e+02,2.163622140181779832e+04
7.295430000000000064e+02,2.179880000865146576e+04
7.277319999999999709e+02,2.214548290182838537e+04
7.259210000000000491e+02,2.217317008134860225e+04
7.241090000000000373e+02,2.241582472423478612e+04
7.222960000000000491e+02,2.227412670499477099e+04
7.204840000000000373e+02,2.272232971145999181e+04
7.186699999999999591e+02,2.287402302357568988e+04
7.168569999999999709e+02,2.316891736139664135e+04
7.150430000000000064e+02,2.318669878596841590e+04
7.132279999999999518e+02,2.343734717166032351e+04
7.114130000000000109e+02,2.359223950886492094e+04
7.095979999999999563e+02,2.368645579758222448e+04
7.077820000000000391e+02,2.403975883791966771e+04
7.059660000000000082e+02,2.429128574594674865e+04
7.041490000000000009e+02,2.440981923790166911e+04
7.023319999999999936e+02,2.479679651367696351e+04
7.005140000000000100e+02,2.467500020559543918e+04
6.986970000000000027e+02,2.502592500706533610e+04
6.968780000000000427e+02,2.556487868914730643e+04
6.950589999999999691e+02,2.547375598717266257e+04
6.932400000000000091e+02,2.563327690114139114e+04
6.914210000000000491e+02,2.599026143105352094e+04
6.896000000000000227e+02,2.603097433766971517e+04
6.877799999999999727e+02,2.622706835383732687e+04
6.859589999999999463e+02,2.666824819825543091e+04
6.841380000000000337e+02,2.622635149055523652e+04
6.823160000000000309e+02,2.651530044295152038e+04
6.804940000000000282e+02,2.693579275912942103e+04
6.786710000000000491e+02,2.713695056715742976e+04
6.768479999999999563e+02,2.753653165482078475e+04
6.750240000000000009e+02,2.759843806599554955e+04
6.732010000000000218e+02,2.812898567084491515e+04
6.713759999999999764e+02,2.820742047467381053e+04
6.695510000000000446e+02,2.826333838970697252e+04
6.677259999999999991e+02,2.868763941594444623e+04
6.659009999999999536e+02,2.883866355338621361e+04
6.640739999999999554e+02,2.918215438423735031e+04
6.622480000000000473e+02,2.937000640876306716e+04
6.604210000000000491e+02,2.984096316696835129e+04
6.585940000000000509e+02,3.009418286776218156e+04
6.567659999999999627e+02,3.036536713352751394e+04
6.549379999999999882e+02,3.062817425750429538e+04
6.531090000000000373e+02,3.105466577765212423e+04
6.512799999999999727e+02,3.164032007158811757e+04
6.494500000000000455e+02,3.183875859280242730e+04
6.476200000000000045e+02,3.248347980333541636e+04
6.457899999999999636e+02,3.313200370318712521e+04
6.439589999999999463e+02,3.355301161908575159e+04
6.421280000000000427e+02,3.408712213978744694e+04
6.402960000000000491e+02,3.455025650745866005e+04
6.384640000000000555e+02,3.502219339537109772e+04
6.366319999999999482e+02,3.576915280352482660e+04
6.347989999999999782e+02,3.609951584718582308e+04
6.329650000000000318e+02,3.643608239940751810e+04
6.311309999999999718e+02,3.702243130260834005e+04
6.292970000000000255e+02,3.789554255678830668e+04
6.274619999999999891e+02,3.886443710783588176e+04
6.256269999999999527e+02,3.894437392516227555e+04
6.237920000000000300e+02,3.979321300876747409e+04
6.219560000000000173e+02,4.057001517743182194e+04
6.201190000000000282e+02,4.128936030400088930e+04
6.182820000000000391e+02,4.168192752730964276e+04
6.164450000000000500e+02,4.248001684735806339e+04
6.146069999999999709e+02,4.343476891327187332e+04
6.127690000000000055e+02,4.424948299108652282e+04
6.109299999999999500e+02,4.502523964504276228e+04
6.090910000000000082e+02,4.588869822601482883e+04
6.072519999999999527e+02,4.684871873400275217e+04
6.054120000000000346e+02,4.758084160586202051e+04
6.035720000000000027e+02,4.853050631980594335e+04
6.017309999999999945e+02,4.919347322771273321e+04
5.998899999999999864e+02,5.010998189272683521e+04
5.980480000000000018e+02,5.046299258170294343e+04
5.962060000000000173e+02,5.096614494276287587e+04
5.943630000000000564e+02,5.214865915769157436e+04
5.925199999999999818e+02,5.269133495963443420e+04
5.906770000000000209e+02,5.317599234859143326e+04
5.888329999999999700e+02,5.371329137868530233e+04
5.869890000000000327e+02,5.385177191067744570e+04
5.851440000000000055e+02,5.469221391352859064e+04
5.832989999999999782e+02,5.517073733311599062e+04
5.814529999999999745e+02,5.533698205319219414e+04
5.796069999999999709e+02,5.617100810479641950e+04
5.777609999999999673e+02,5.602927548792875314e+04
5.759139999999999873e+02,5.664914395847164269e+04
5.740660000000000309e+02,5.699725338850890694e+04
5.722179999999999609e+02,5.710896397951933614e+04
5.703700000000000045e+02,5.752057573150296230e+04
5.685209999999999582e+02,5.804886822967191983e+04
5.666720000000000255e+02,5.793604180346729117e+04
5.648229999999999791e+02,5.809327645288917847e+04
5.629729999999999563e+02,5.844939163507189369e+04
5.611219999999999573e+02,5.862080722189152584e+04
5.592709999999999582e+02,5.873616371350569534e+04
5.574199999999999591e+02,5.903996110991435853e+04
5.555679999999999836e+02,5.963631869730463950e+04
5.537160000000000082e+02,5.989847710400421056e+04
5.518630000000000564e+02,6.022095553066876892e+04
5.500099999999999909e+02,6.067895469111119019e+04
5.481570000000000391e+02,6.124677458533157187e+04
5.463029999999999973e+02,6.108319428563073598e+04
5.444479999999999791e+02,6.189281366360768152e+04
5.425940000000000509e+02,6.264397461750720686e+04
5.407380000000000564e+02,6.263785410729148134e+04
5.388819999999999482e+02,6.334947407398244832e+04
5.370259999999999536e+02,6.427919451758013747e+04
5.351699999999999591e+02,6.486761543808452552e+04
5.333129999999999882e+02,6.534129560791723634e+04
5.314550000000000409e+02,6.630007489846948010e+04
5.295969999999999800e+02,6.634273449445013830e+04
5.277390000000000327e+02,6.728451439585917979e+04
5.258799999999999955e+02,6.758033320352446754e+04
5.240199999999999818e+02,6.854939078869871446e+04
5.221609999999999445e+02,6.869004999268821848e+04
5.203010000000000446e+02,6.894630788833212864e+04
5.184400000000000546e+02,6.910370434681390179e+04
5.165789999999999509e+02,6.955878085316033685e+04
5.147169999999999845e+02,7.006955575049694744e+04
5.128550000000000182e+02,7.028517060975127970e+04
5.109929999999999950e+02,7.064168543092333130e+04
5.091299999999999955e+02,7.042949842816052842e+04
5.072669999999999959e+02,7.026759130132236169e+04
5.054030000000000200e+02,7.052584217851699213e+04
5.035389999999999873e+02,7.050813284559696331e+04
5.016739999999999782e+02,7.068074134458502522e+04
4.998090000000000259e+02,7.045662954737296968e+04
4.979429999999999836e+02,7.108169540985202184e+04
4.960769999999999982e+02,7.099124088999930245e+04
4.942110000000000127e+02,7.106692598781488778e+04
4.923439999999999941e+02,7.067078852993478358e+04
4.904769999999999754e+02,7.082349060354518588e+04
4.886089999999999804e+02,7.058180994905816624e+04
4.867409999999999854e+02,7.044000873983770725e+04
4.848720000000000141e+02,7.052332463002570148e+04
4.830029999999999859e+02,7.038263987921015359e+04
4.811329999999999814e+02,7.005783205521668424e+04
4.792629999999999768e+02,7.021636350390332518e+04
4.773929999999999723e+02,7.013931422527013638e+04
4.755219999999999914e+02,6.907402165761057404e+04
4.736499999999999773e+02,6.951210567134631856e+04
4.717789999999999964e+02,6.900711143312929198e+04
4.699060000000000059e+02,6.912141099854485947e+04
4.680339999999999918e+02,6.873855231200772687e+04
4.661600000000000250e+02,6.877532716973870993e+04
4.642869999999999777e+02,6.828556377551698824e+04
4.624130000000000109e+02,6.744735653041650949e+04
4.605380000000000109e+02,6.709254530465122662e+04
4.586630000000000109e+02,6.685495291929203086e+04
4.567880000000000109e+02,6.664651937433893909e+04
4.549119999999999777e+02,6.630680163229544996e+04
4.530350000000000250e+02,6.631259956323694496e+04
4.511589999999999918e+02,6.591255928551084071e+04
4.492810000000000059e+02,6.523711142663983628e+04
4.474039999999999964e+02,6.552372535910121223e+04
4.455249999999999773e+02,6.492585145036072936e+04
4.436469999999999914e+02,6.450281933295262570e+04
4.417679999999999723e+02,6.404164245510121691e+04
4.398879999999999768e+02,6.370578068667411571e+04
4.380079999999999814e+02,6.361787732522482111e+04
4.361279999999999859e+02,6.334095237075332261e+04
4.342470000000000141e+02,6.265584230870343163e+04
4.323659999999999854e+02,6.257723056680714944e+04
4.304839999999999804e+02,6.202283354363792023e+04
4.286019999999999754e+02,6.179243475375202252e+04
4.267189999999999941e+02,6.076043050880630472e+04
4.248360000000000127e+02,6.107422441022736166e+04
4.229519999999999982e+02,6.077149268270946050e+04
4.210679999999999836e+02,6.037015901459560700e+04
4.191829999999999927e+02,6.018021954357124923e+04
4.172980000000000018e+02,6.005559804494211858e+04
4.154130000000000109e+02,6.012693451870822173e+04
4.135269999999999868e+02,5.958108497198395344e+04
4.116410000000000196e+02,5.942827331059987773e+04
4.097540000000000191e+02,5.939237545456919179e+04
4.078670000000000186e+02,5.895537539677754103e+04
4.059789999999999850e+02,5.883806897009067325e+04
4.040910000000000082e+02,5.865876025449548615e+04
4.022019999999999982e+02,5.834216499566419952e+04
4.003129999999999882e+02,5.819590736073101289e+04
3.984230000000000018e+02,5.860216300812848931e+04
3.965330000000000155e+02,5.809581619218437118e+04
3.946429999999999723e+02,5.827152691289865470e+04
3.927520000000000095e+02,5.804651069778660894e+04
3.908600000000000136e+02,5.769820741588478268e+04
3.889689999999999941e+02,5.778446605586328224e+04
3.870760000000000218e+02,5.730719293820252642e+04
3.851829999999999927e+02,5.725691709520402219e+04
3.832900000000000205e+02,5.767965852686774451e+04
3.813960000000000150e+02,5.746273249855124595e+04
3.795020000000000095e+02,5.717936365747260425e+04
3.776080000000000041e+02,5.733283200363180367e+04
3.757119999999999891e+02,5.719870780533220386e+04
3.738170000000000073e+02,5.697724552891293570e+04
3.719209999999999923e+02,5.685875539888435742e+04
3.700240000000000009e+02,5.694147728393672151e+04
3.681270000000000095e+02,5.651461609367675555e+04
3.662300000000000182e+02,5.672645182810441474e+04
3.643319999999999936e+02,5.660149935864806321e+04
3.624340000000000259e+02,5.635168372627029021e+04
3.605350000000000250e+02,5.669321971474416205e+04
3.586360000000000241e+02,5.684577245264135126e+04
3.567359999999999900e+02,5.670029663603354129e+04
3.548360000000000127e+02,5.689167748114762799e+04
3.529350000000000023e+02,5.699194959630770609e+04
3.510339999999999918e+02,5.685937828544208605e+04
3.491320000000000050e+02,5.670613806908112019e+04
3.472300000000000182e+02,5.664489433890071086e+04
3.453279999999999745e+02,5.690794709490086098e+04
3.434250000000000114e+02,5.708553072586352209e+04
3.415210000000000150e+02,5.662126509999419795e+04
3.396170000000000186e+02,5.695083578457938711e+04
3.377130000000000223e+02,5.681338277961910353e+04
3.358079999999999927e+02,5.674688029805386032e+04
3.339030000000000200e+02,5.692101403901085723e+04
3.319970000000000141e+02,5.716457812745218689e+04
3.300910000000000082e+02,5.683749835043733037e+04
3.281840000000000259e+02,5.731590874490372516e+04
3.262769999999999868e+02,5.731323518588933803e+04
3.243690000000000282e+02,5.731921162226080196e+04
3.224610000000000127e+02,5.743990401708068384e+04
3.205520000000000209e+02,5.760508623109869222e+04
3.186429999999999723e+02,5.756612431544815627e+04
3.167339999999999804e+02,5.792905827012908412e+04
3.148240000000000123e+02,5.764446182365802088e+04
3.129130000000000109e+02,5.759843484375569824e+04
3.110020000000000095e+02,5.763978355781239952e+04
3.090910000000000082e+02,5.780766796582812822e+04
3.071789999999999736e+02,5.787528161983162863e+04
3.052669999999999959e+02,5.780089087953868147e+04
3.033539999999999850e+02,5.774040920867638488e+04
3.014399999999999977e+02,5.770607647475766862e+04
2.995269999999999868e+02,5.755982579453686049e+04
2.976120000000000232e+02,5.765141729408258107e+04
2.956979999999999791e+02,5.730887084732619405e+04
2.937819999999999823e+02,5.772886631515439512e+04
2.918670000000000186e+02,5.762446383668050839e+04
2.899510000000000218e+02,5.740868985318030900e+04
2.880339999999999918e+02,5.727654423195892014e+04
2.861170000000000186e+02,5.709977377447119943e+04
2.841990000000000123e+02,5.740551150224347657e+04
2.822810000000000059e+02,5.709870430521692469e+04
2.803629999999999995e+02,5.730803218339155865e+04
2.784440000000000168e+02,5.712434802543722617e+04
2.765240000000000009e+02,5.750655169845135242e+04
2.746039999999999850e+02,5.710829026946314843e+04
2.726840000000000259e+02,5.703586373847262439e+04
2.707629999999999768e+02,5.706294481683074264e+04
2.688419999999999845e+02,5.710790070451553038e+04
2.669200000000000159e+02,5.681826402416077326e+04
2.649970000000000141e+02,5.707605464265609771e+04
2.630749999999999886e+02,5.694772735915020166e+04
2.611510000000000105e+02,5.721049977518516243e+04
2.592269999999999754e+02,5.669678673425677698e+04
2.573029999999999973e+02,5.703968823636501475e+04
2.553789999999999907e+02,5.697868428150989348e+04
2.534530000000000030e+02,5.753329949320002197e+04
2.515279999999999916e+02,5.736909680288892559e+04
2.496009999999999991e+02,5.751575301241752459e+04
2.476750000000000114e+02,5.782315131994491821e+04
2.457479999999999905e+02,5.798457612662119209e+04
2.438199999999999932e+02,5.806292729898966354e+04
2.418919999999999959e+02,5.826643265869499737e+04
2.399629999999999939e+02,5.830004420605798077e+04
2.380339999999999918e+02,5.884914985171743319e+04
2.361049999999999898e+02,5.884930959567338141e+04
2.341750000000000114e+02,5.930909530462832481e+04
2.322439999999999998e+02,5.917994684491781663e+04
2.303129999999999882e+02,5.934389230528456392e+04
2.283820000000000050e+02,5.932939168572852941e+04
2.264499999999999886e+02,5.969093667461754376e+04
2.245180000000000007e+02,6.000929549440493429e+04
2.225850000000000080e+02,5.993173974423344043e+04
2.206510000000000105e+02,6.002488929023085802e+04
2.187179999999999893e+02,6.017864097878189932e+04
2.167829999999999870e+02,6.013594933943192882e+04
2.148480000000000132e+02,6.008523126316662092e+04
2.129130000000000109e+02,6.013754674998601695e+04
2.109770000000000039e+02,6.013302713105756266e+04
2.090409999999999968e+02,6.052744098585023312e+04
2.071040000000000134e+02,6.032941955612177844e+04
2.051670000000000016e+02,6.019183151070470922e+04
2.032290000000000134e+02,6.062924800190085080e+04
2.012909999999999968e+02,6.055429778795246966e+04
1.993520000000000039e+02,6.060113193165932171e+04
1.974130000000000109e+02,6.049577928071955830e+04
1.954730000000000132e+02,6.033943080838471360e+04
1.935329999999999870e+02,6.075189545185501629e+04
1.915929999999999893e+02,6.045867321113043727e+04
1.896510000000000105e+02,6.074308576393079420e+04
1.877100000000000080e+02,6.078966045928477251e+04
1.857680000000000007e+02,6.103051893005722377e+04
1.838249999999999886e+02,6.105098104175264598e+04
1.818820000000000050e+02,6.136393600033142138e+04
1.799379999999999882e+02,6.130189442041347502e+04
1.779939999999999998e+02,6.161306559764596750e+04
1.760500000000000114e+02,6.187180953202886303e+04
1.741049999999999898e+02,6.193299670352500834e+04
1.721589999999999918e+02,6.212522697743109893e+04
1.702129999999999939e+02,6.261202982888322731e+04
1.682659999999999911e+02,6.296449560304858460e+04
1.663189999999999884e+02,6.309535386488854419e+04
1.643720000000000141e+02,6.323612461440313200e+04
1.624240000000000066e+02,6.368711806189460913e+04
1.604749999999999943e+02,6.398421407245192677e+04
1.585260000000000105e+02,6.418410239080245083e+04
1.565769999999999982e+02,6.433538301694616530e+04
1.546270000000000095e+02,6.473864598118856520e+04
1.526759999999999877e+02,6.489049114848006866e+04
1.507249999999999943e+02,6.511242844349867664e+04
1.487740000000000009e+02,6.544331786624443339e+04
1.468220000000000027e+02,6.543030926684120641e+04
1.448700000000000045e+02,6.549871270506284054e+04
1.429170000000000016e+02,6.556805794088475523e+04
1.409629999999999939e+02,6.641346483904964407e+04
1.390089999999999861e+02,6.635484359449624026e+04
1.370550000000000068e+02,6.606029420722454961e+04
1.350999999999999943e+02,6.591884625675153802e+04
1.331440000000000055e+02,6.591759960768128803e+04
1.311879999999999882e+02,6.648536463536496740e+04
1.292319999999999993e+02,6.636604133980257029e+04
1.272750000000000057e+02,6.669469911986778607e+04
1.253179999999999978e+02,6.688904848635380040e+04
1.233599999999999994e+02,6.699565874775494740e+04
1.214009999999999962e+02,6.641134976846765494e+04
1.194419999999999931e+02,6.607183219479632680e+04
1.174830000000000041e+02,6.607974602674090420e+04
1.155229999999999961e+02,6.521412039187560003e+04
1.135630000000000024e+02,6.484066607215457771e+04
1.116020000000000039e+02,6.418685210463414114e+04
1.096400000000000006e+02,6.473307835350291862e+04
1.076779999999999973e+02,6.472995573643413809e+04
1.057159999999999940e+02,6.401748425342778501e+04
1.037530000000000001e+02,6.317141276034292969e+04
1.017900000000000063e+02,6.338329231071033428e+04
9.982569999999999766e+01,6.379874629928898503e+04
9.786119999999999663e+01,6.428168095742469450e+04
9.589629999999999654e+01,6.509050599280167080e+04
9.393080000000000496e+01,6.649901107680740824e+04
9.196490000000000009e+01,6.709598641102561669e+04
8.999840000000000373e+01,6.731226164865991450e+04
8.803149999999999409e+01,6.718238700941327261e+04
8.606399999999999295e+01,6.744497212829616910e+04
8.409610000000000696e+01,6.711614724314006162e+04
8.212760000000000105e+01,6.529748197075305507e+04
8.015860000000000696e+01,6.329105139822065394e+04
7.818909999999999627e+01,6.189317545736010652e+04
7.621909999999999741e+01,6.120607407997141854e+04
7.424869999999999948e+01,6.021916238036441791e+04
7.227760000000000673e+01,5.777131474272285413e+04
7.030610000000000070e+01,5.194351664637635258e+04
6.833410000000000650e+01,4.330051284052842675e+04
6.636159999999999570e+01,3.210960325689250021e+04
6.438859999999999673e+01,2.067508782716463247e+04
6.241499999999999915e+01,1.189271127317805986e+04
6.044100000000000250e+01,5.980267941728270671e+03
5.846640000000000015e+01,2.161449340208720514e+03
