1.838309999999999945e+03,-7.726429746063804487e+02
1.836750000000000000e+03,-3.894105980356980581e+02
1.835180000000000064e+03,-1.002449077554774703e+02
1.833609999999999900e+03,2.388068406697129831e+01
1.832049999999999955e+03,-1.580621474566578399e+01
1.830480000000000018e+03,1.298394355654163519e+02
1.828910000000000082e+03,2.286449874187237583e+02
1.827339999999999918e+03,7.701044081425061449e+01
1.825779999999999973e+03,1.009644235646846937e+02
1.824210000000000036e+03,-8.750064551146351732e+00
1.822640000000000100e+03,1.798953488752158592e+02
1.821069999999999936e+03,5.881006638438702794e+02
1.819500000000000000e+03,5.190658803546975832e+02
1.817930000000000064e+03,-1.068090015922352904e+02
1.816359999999999900e+03,1.344760180030571064e+02
1.814789999999999964e+03,4.112093914058641531e+01
1.813220000000000027e+03,1.713257618203060701e+02
1.811650000000000091e+03,4.280904860422742786e+02
1.810079999999999927e+03,-1.113848881935264217e+02
1.808500000000000000e+03,1.874682018541352591e+02
1.806930000000000064e+03,1.405123752985673491e+02
1.805359999999999900e+03,7.571645028526836541e+01
1.803789999999999964e+03,-3.041195731858460931e+02
1.802210000000000036e+03,-8.602815561702300329e+01
1.800640000000000100e+03,-2.014463140787847806e+01
1.799069999999999936e+03,3.656987943435233319e+02
1.797490000000000009e+03,1.240688932954799384e+02
1.795920000000000073e+03,-4.035681332728854613e+02
1.794339999999999918e+03,-3.450789990758057684e+02
1.792769999999999982e+03,2.150035220360878156e+02
1.791190000000000055e+03,-4.015883085217355983e+02
1.789619999999999891e+03,-1.238623972955974750e+01
1.788039999999999964e+03,-3.194590350422949996e+02
1.786470000000000027e+03,-1.469374185698980000e+02
1.784890000000000100e+03,-7.182911786375188967e+02
1.783309999999999945e+03,-3.592855495980620617e+02
1.781740000000000009e+03,1.531526069264509715e+01
1.780160000000000082e+03,4.044399249771668110e+02
1.778579999999999927e+03,3.461239783687924501e+02
1.777000000000000000e+03,4.185674208674754482e+02
1.775430000000000064e+03,7.394070711145031964e+02
1.773849999999999909e+03,9.619695488582947291e+02
1.772269999999999982e+03,9.756914157091232482e+02
1.770690000000000055e+03,1.351572671667017858e+03
1.769109999999999900e+03,9.520133167320163921e+02
1.767529999999999973e+03,1.054213350904057734e+03
1.765950000000000045e+03,8.099727741831738967e+02
1.764369999999999891e+03,1.424891586569341598e+03
1.762789999999999964e+03,1.061969788062589942e+03
1.761210000000000036e+03,8.328073786629101960e+02
1.759619999999999891e+03,7.835649694192979950e+02
1.758039999999999964e+03,7.087210812027769862e+02
1.756460000000000036e+03,5.474365820933307987e+02
1.754880000000000109e+03,7.269114720909128664e+02
1.753289999999999964e+03,5.277053324939770391e+02
1.751710000000000036e+03,1.844987436747469474e+02
1.750130000000000109e+03,3.314515439625974977e+02
1.748539999999999964e+03,-1.378774580637982581e+02
1.746960000000000036e+03,-2.432061365927802399e+02
1.745369999999999891e+03,-3.528171331247140188e+02
1.743789999999999964e+03,-4.274272904705721885e+02
1.742200000000000045e+03,-5.359202815080643632e+02
1.740619999999999891e+03,-8.256119176707143197e+02
1.739029999999999973e+03,-8.785869032137561589e+02
1.737450000000000045e+03,-1.176360018193270662e+03
1.735859999999999900e+03,-1.075816998241847614e+03
1.734269999999999982e+03,-1.474715104872084339e+03
1.732690000000000055e+03,-1.065210566592329997e+03
1.731099999999999909e+03,-1.556590667728087283e+03
1.729509999999999991e+03,-9.490118954455392668e+02
1.727920000000000073e+03,-1.289474249744642293e+03
1.726329999999999927e+03,-1.024577730625358527e+03
1.724750000000000000e+03,-1.025277274934123852e+03
1.723160000000000082e+03,-9.596627503204072127e+02
1.721569999999999936e+03,-7.056893522883183323e+02
1.719980000000000018e+03,-6.757570808378950460e+02
1.718390000000000100e+03,-9.166659359691257123e+02
1.716799999999999955e+03,-6.966159176819928689e+02
1.715210000000000036e+03,-7.058070259765227092e+02
1.713609999999999900e+03,-9.822861346105055418e+02
1.712019999999999982e+03,-8.401597547260607826e+02
1.710430000000000064e+03,-8.870745014232670655e+02
1.708839999999999918e+03,-7.290303747021243908e+02
1.707250000000000000e+03,-2.442273745626007440e+02
1.705650000000000091e+03,-3.737136696781089995e+02
1.704059999999999945e+03,-3.835931813596398570e+02
1.702470000000000027e+03,2.700861803771695122e+02
1.700869999999999891e+03,9.207546925896895118e+01
1.699279999999999973e+03,3.838723191747412784e+02
1.697690000000000055e+03,2.960280425088712946e+02
1.696089999999999918e+03,2.012929153879813384e+02
1.694500000000000000e+03,7.876612690105685033e+01
1.692900000000000091e+03,-6.585203098318015691e+01
1.691299999999999955e+03,2.640881656087003648e+02
1.689710000000000036e+03,5.554374800613586558e+02
1.688109999999999900e+03,3.808946458899299614e+02
1.686509999999999991e+03,7.307101661945489468e+02
1.684920000000000073e+03,8.769355835867609130e+02
1.683319999999999936e+03,2.952680731280997861e+02
1.681720000000000027e+03,8.205589171455212636e+02
1.680119999999999891e+03,1.150808115639010794e+03
1.678529999999999973e+03,7.570682507314049872e+02
1.676930000000000064e+03,1.412834418461570749e+03
1.675329999999999927e+03,9.269589406678278465e+02
1.673730000000000018e+03,1.006441817350176279e+03
1.672130000000000109e+03,1.139083048508604406e+03
1.670529999999999973e+03,7.774826341431180481e+02
1.668930000000000064e+03,1.118240574253708473e+03
1.667329999999999927e+03,1.307556868840387324e+03
1.665730000000000018e+03,1.154631517903137137e+03
1.664130000000000109e+03,1.302064521441963734e+03
1.662519999999999982e+03,1.051600694488835870e+03
1.660920000000000073e+03,9.257301466953213094e+02
1.659319999999999936e+03,1.345857953377882950e+03
1.657720000000000027e+03,5.929041145365044940e+02
1.656109999999999900e+03,7.973324024383182405e+02
1.654509999999999991e+03,6.052950122645852389e+02
1.652910000000000082e+03,6.436959765669453191e+02
1.651299999999999955e+03,7.211828513212094549e+01
1.649700000000000045e+03,4.316156981021049432e+02
1.648089999999999918e+03,4.252939331390953157e+02
1.646490000000000009e+03,3.678077947767160367e+02
1.644880000000000109e+03,1.029419562854891410e+02
1.643279999999999973e+03,2.929226659078267403e+01
1.641670000000000073e+03,1.118823545713821659e+02
1.640059999999999945e+03,3.847902748322230764e+02
1.638460000000000036e+03,6.333351279967027949e+02
1.636849999999999909e+03,-1.635810252706287429e+02
1.635240000000000009e+03,-3.203393462577223545e+02
1.633630000000000109e+03,-3.992598349645704729e+02
1.632029999999999973e+03,3.976552506792359054e-01
1.630420000000000073e+03,-2.405869069843465695e+02
1.628809999999999945e+03,-4.015363693908147980e+01
1.627200000000000045e+03,-2.050225346135994187e+02
1.625589999999999918e+03,1.131863999921624782e+02
1.623980000000000018e+03,-2.791868331218283856e+02
1.622369999999999891e+03,-4.744022339555813232e+02
1.620759999999999991e+03,-6.773598025090614101e+02
1.619150000000000091e+03,-9.323195387823216151e+02
1.617539999999999964e+03,-8.424814427752717165e+02
1.615930000000000064e+03,-6.662055144880287116e+02
1.614309999999999945e+03,-9.144747815866285237e+02
1.612700000000000045e+03,-1.099783450650138548e+03
1.611089999999999918e+03,-1.063354287433394347e+03
1.609480000000000018e+03,-1.247707291936385445e+03
1.607859999999999900e+03,-1.238426541097258450e+03
1.606250000000000000e+03,-1.432244142951094545e+03
1.604640000000000100e+03,-1.516323912524632760e+03
1.603019999999999982e+03,-1.447530714116728632e+03
1.601410000000000082e+03,-1.372435081041054218e+03
1.599789999999999964e+03,-1.721987005433344166e+03
1.598180000000000064e+03,-1.097435969708487391e+03
1.596559999999999945e+03,-1.062213016900946968e+03
1.594940000000000055e+03,-1.161632757262501400e+03
1.593329999999999927e+03,-1.514188748519489309e+03
1.591710000000000036e+03,-1.187893611681240145e+03
1.590089999999999918e+03,-1.270261168012133567e+03
1.588480000000000018e+03,-1.326384186250972562e+03
1.586859999999999900e+03,-1.431216865382026299e+03
1.585240000000000009e+03,-1.250152237682224950e+03
1.583619999999999891e+03,-1.237290303151574335e+03
1.582000000000000000e+03,-1.445231061790022068e+03
1.580380000000000109e+03,-1.016014513597605401e+03
1.578759999999999991e+03,-1.059720658574311528e+03
1.577150000000000091e+03,-9.321804223191866186e+02
1.575519999999999982e+03,-9.087810280351404799e+02
1.573900000000000091e+03,-9.777352525192400208e+02
1.572279999999999973e+03,-8.791921701724641025e+02
1.570660000000000082e+03,-8.229317809948406648e+02
1.569039999999999964e+03,-8.228340849863016047e+02
1.567420000000000073e+03,-4.740590821469377261e+02
1.565799999999999955e+03,-5.307267724766861647e+02
1.564170000000000073e+03,-5.413283403079840355e+02
1.562549999999999955e+03,-3.250416805140703218e+02
1.560930000000000064e+03,-3.194977138892863877e+02
1.559299999999999955e+03,1.657158299292495940e+01
1.557680000000000064e+03,2.535498997413524194e+02
1.556059999999999945e+03,5.803255233207019046e+02
1.554430000000000064e+03,5.602256849164114101e+02
1.552809999999999945e+03,-1.258443413806089666e+02
1.551180000000000064e+03,1.664496416358306305e+02
1.549549999999999955e+03,5.260402780200820416e+00
1.547930000000000064e+03,1.943017698996263789e+02
1.546299999999999955e+03,1.576663524647301529e+02
1.544680000000000064e+03,2.423420697078108788e+02
1.543049999999999955e+03,4.426604736936424160e+02
1.541420000000000073e+03,4.293756558073509950e+02
1.539789999999999964e+03,5.978761604904138949e+01
1.538170000000000073e+03,5.000117700013652211e+02
1.536539999999999964e+03,8.732375516637694091e+02
1.534910000000000082e+03,1.010240111454113503e+03
1.533279999999999973e+03,8.258794493723835330e+02
1.531650000000000091e+03,1.153415565418559709e+03
1.530019999999999982e+03,1.072428459592672880e+03
1.528390000000000100e+03,9.667181318947114050e+02
1.526759999999999991e+03,9.907245823246921645e+02
1.525130000000000109e+03,1.004247810882588965e+03
1.523500000000000000e+03,1.099947817568448954e+03
1.521859999999999900e+03,1.001446535150913405e+03
1.520230000000000018e+03,1.308779832927742973e+03
1.518599999999999909e+03,1.228809908832510700e+03
1.516970000000000027e+03,1.090436762865225319e+03
1.515329999999999927e+03,1.160401265508291544e+03
1.513700000000000045e+03,1.045301410632004263e+03
1.512069999999999936e+03,1.242758333883641171e+03
1.510430000000000064e+03,9.313721086243022000e+02
1.508799999999999955e+03,9.185823229669622378e+02
1.507160000000000082e+03,1.445088856842150562e+03
1.505529999999999973e+03,1.091572362275794148e+03
1.503890000000000100e+03,7.578916552854643669e+02
1.502259999999999991e+03,9.196684518101246795e+02
1.500619999999999891e+03,6.662005039543437306e+02
1.498980000000000018e+03,4.959288022699329304e+02
1.497349999999999909e+03,7.126354028486675816e+02
1.495710000000000036e+03,3.482164602987904800e+02
1.494069999999999936e+03,6.211337639203411527e+02
1.492430000000000064e+03,3.631273137133248383e+02
1.490789999999999964e+03,3.444571096777654020e+02
1.489160000000000082e+03,4.895465402366826311e+02
1.487519999999999982e+03,3.674690953356330283e+02
1.485880000000000109e+03,3.332478966059861705e+02
1.484240000000000009e+03,4.262429440478153992e+02
1.482599999999999909e+03,1.670342376610497013e+02
1.480960000000000036e+03,4.184817774457187625e+02
1.479319999999999936e+03,-1.638944365981878946e+02
1.477670000000000073e+03,-1.115996604351821588e+02
1.476029999999999973e+03,-1.322364892784389667e+01
1.474390000000000100e+03,-2.351313912490586517e+02
1.472750000000000000e+03,-2.341628873988665873e+02
1.471109999999999900e+03,-5.250981373772228835e+02
1.469460000000000036e+03,-4.207837327336601447e+02
1.467819999999999936e+03,-8.460267571607837453e+02
1.466180000000000064e+03,-4.959935354165063472e+02
1.464529999999999973e+03,-6.235114610519376583e+02
1.462890000000000100e+03,-9.240660137564118486e+02
1.461240000000000009e+03,-9.055322490506805480e+02
1.459599999999999909e+03,-9.129145762039261172e+02
1.457950000000000045e+03,-9.879691211570170708e+02
1.456309999999999945e+03,-8.516592227590299444e+02
1.454660000000000082e+03,-6.579020773709780769e+02
1.453009999999999991e+03,-8.097492210215132218e+02
1.451369999999999891e+03,-5.272711176924931351e+02
1.449720000000000027e+03,-6.117265710018837126e+02
1.448069999999999936e+03,-5.735863133498496609e+02
1.446420000000000073e+03,-4.256103447364585008e+02
1.444769999999999982e+03,-6.595786651616945164e+02
1.443119999999999891e+03,-2.405512746255262755e+02
1.441480000000000018e+03,-3.869770282260869863e+02
1.439829999999999927e+03,-1.179179473487602081e+02
1.438180000000000064e+03,-7.960315551006351598e+01
1.436529999999999973e+03,-3.715926527099800296e+02
1.434880000000000109e+03,-9.668643894851265941e+01
1.433220000000000027e+03,-2.055170012196176685e+02
1.431569999999999936e+03,-6.853963395381288137e+01
1.429920000000000073e+03,-2.715665557266329415e+02
1.428269999999999982e+03,-1.361177665380382678e+02
1.426619999999999891e+03,-4.979132663880736800e+02
1.424960000000000036e+03,-5.504688598957727663e+01
1.423309999999999945e+03,-1.148712323352810927e+02
1.421660000000000082e+03,1.540601322803850053e+02
1.420000000000000000e+03,1.318125702625984559e+02
1.418349999999999909e+03,7.111508838263398502e+01
1.416700000000000045e+03,9.291331746401556302e+01
1.415039999999999964e+03,1.389181302991346456e+01
1.413380000000000109e+03,1.744254810935817659e+02
1.411730000000000018e+03,8.839030622231075540e+01
1.410069999999999936e+03,1.178345893267251085e+02
1.408420000000000073e+03,7.107056795974494889e+01
1.406759999999999991e+03,3.436546610492223408e+01
1.405099999999999909e+03,1.639755367478210246e+02
1.403450000000000045e+03,3.037811142817372456e+01
1.401789999999999964e+03,3.034387971118412679e+02
1.400130000000000109e+03,5.139746552932483610e+02
1.398470000000000027e+03,7.579056859724369133e+02
1.396809999999999945e+03,6.792318891493923729e+02
1.395150000000000091e+03,5.661932648241199786e+02
1.393490000000000009e+03,7.277298129966075066e+02
1.391829999999999927e+03,7.518015336668904638e+02
1.390170000000000073e+03,7.866684268349199556e+02
1.388509999999999991e+03,9.811304925007134443e+02
1.386849999999999909e+03,6.936077306643128395e+02
1.385190000000000055e+03,8.518801413256442174e+02
1.383529999999999973e+03,9.147077244847605471e+02
1.381859999999999900e+03,6.903296380144456634e+02
1.380200000000000045e+03,7.272872961238899734e+02
1.378539999999999964e+03,9.452601267311401898e+02
1.376880000000000109e+03,5.036081298361241352e+02
1.375210000000000036e+03,5.004093815041269409e+02
1.373549999999999955e+03,4.763874595594970742e+02
1.371880000000000109e+03,1.622582444606814533e+02
1.370220000000000027e+03,-8.001360253363964148e+01
1.368549999999999955e+03,5.564667156007490121e+02
1.366890000000000100e+03,4.550049435567925684e+02
1.365220000000000027e+03,3.584547949243424227e+02
1.363559999999999945e+03,2.573630978307191981e+02
1.361890000000000100e+03,3.679224824314296711e+02
1.360220000000000027e+03,4.808164978127606446e+02
1.358549999999999955e+03,5.580051439747185213e+02
1.356890000000000100e+03,1.835333267365931533e+02
1.355220000000000027e+03,1.375515061316982610e+02
1.353549999999999955e+03,1.116043163074355107e+02
1.351880000000000109e+03,2.202717572637338890e+02
1.350210000000000036e+03,2.078138290006754687e+02
1.348539999999999964e+03,-2.382094684818002861e+02
1.346869999999999891e+03,2.913618648163392209e+02
1.345200000000000045e+03,1.936078288950666320e+02
1.343529999999999973e+03,2.943084237544098869e+02
1.341859999999999900e+03,-9.276350605665356852e+00
1.340190000000000055e+03,1.753350581487757154e+01
1.338519999999999982e+03,-1.192420069839718053e+02
1.336849999999999909e+03,2.735571109978045570e+02
1.335170000000000073e+03,-6.313757779484149069e+01
1.333500000000000000e+03,-1.795094699238543399e+02
1.331829999999999927e+03,-1.526667312722565839e+02
1.330150000000000091e+03,-6.112386160377645865e+02
1.328480000000000018e+03,-6.661668874969473109e+02
1.326799999999999955e+03,-7.332503273439069744e+02
1.325130000000000109e+03,-9.693496089138498064e+02
1.323450000000000045e+03,-7.823246038423094433e+02
1.321779999999999973e+03,-8.634548955230275169e+02
1.320099999999999909e+03,-8.325814455329818884e+02
1.318430000000000064e+03,-4.295227473244740395e+02
1.316750000000000000e+03,-5.621808524158986984e+02
1.315069999999999936e+03,-4.243448716974671697e+02
1.313400000000000091e+03,-2.392628244910592912e+02
1.311720000000000027e+03,-3.477583988541009603e+02
1.310039999999999964e+03,-3.944998874072916806e+02
1.308359999999999900e+03,-4.567072901505744085e+02
1.306680000000000064e+03,-4.858406070839992026e+02
1.305000000000000000e+03,-3.011798382075357949e+02
1.303319999999999936e+03,-6.887449835211737081e+02
1.301640000000000100e+03,-3.029360430249507772e+02
1.299960000000000036e+03,-3.002730167188419728e+02
1.298279999999999973e+03,-2.240959046028583543e+02
1.296599999999999909e+03,-1.663847066769667435e+02
1.294920000000000073e+03,-4.078594229412410641e+02
1.293240000000000009e+03,-7.578005339560331777e+01
1.291559999999999945e+03,-8.324659804007387720e+01
1.289869999999999891e+03,-2.754348637352668447e+02
1.288190000000000055e+03,-9.037351005875098053e+01
1.286509999999999991e+03,-2.142780705723562278e+02
1.284819999999999936e+03,-2.385651736596773844e+02
1.283140000000000100e+03,-4.330218358522979543e+02
1.281450000000000045e+03,-3.210015888429043116e+02
1.279769999999999982e+03,-1.417703527144767577e+02
1.278079999999999927e+03,-9.544275560835376382e+01
1.276400000000000091e+03,-1.809436211589199957e+02
1.274710000000000036e+03,9.255132604393293150e+01
1.273029999999999973e+03,2.486983588144066744e+02
1.271339999999999918e+03,3.823406561139709083e+02
1.269650000000000091e+03,3.606364909991534660e+02
1.267960000000000036e+03,3.433658634699531831e+02
1.266279999999999973e+03,3.858684195836540312e+02
1.264589999999999918e+03,3.227051421511714580e+02
1.262900000000000091e+03,4.615154023042850895e+02
1.261210000000000036e+03,2.962192000429931795e+02
1.259519999999999982e+03,3.440965353673382197e+02
1.257829999999999927e+03,3.206274082772579277e+02
1.256140000000000100e+03,5.832718187727587065e+02
1.254450000000000045e+03,5.174497668538824655e+02
1.252759999999999991e+03,7.970125252062280197e+01
1.251069999999999936e+03,3.593262757729389705e+02
1.249380000000000109e+03,3.539248366108513437e+02
1.247680000000000064e+03,3.075342647962243063e+02
1.245990000000000009e+03,5.567796258798334748e+02
1.244299999999999955e+03,6.417185245490254601e+02
1.242609999999999900e+03,6.825909608038346050e+02
1.240910000000000082e+03,7.548331630771863274e+02
1.239220000000000027e+03,4.931123995776433730e+02
1.237519999999999982e+03,8.475008506188460160e+02
1.235829999999999927e+03,6.761468873650010210e+02
1.234130000000000109e+03,7.533415871740144212e+02
1.232440000000000055e+03,6.770544241658353712e+02
1.230740000000000009e+03,7.338553727426915430e+02
1.229049999999999955e+03,5.582950099801819306e+02
1.227349999999999909e+03,5.272822073248826200e+02
1.225650000000000091e+03,4.290623907773551764e+02
1.223960000000000036e+03,4.595620909205754288e+02
1.222259999999999991e+03,6.138485231408994878e+02
1.220559999999999945e+03,8.949279414689517580e+02
1.218859999999999900e+03,1.030200345904799178e+03
1.217160000000000082e+03,6.674257364483783022e+02
1.215460000000000036e+03,6.614041130997356959e+02
1.213759999999999991e+03,8.772154758588876575e+02
1.212059999999999945e+03,9.294198247257445473e+02
1.210359999999999900e+03,9.559971597004478099e+02
1.208660000000000082e+03,1.022827480782827479e+03
1.206960000000000036e+03,1.176950787973022670e+03
1.205259999999999991e+03,1.218747081270965282e+03
1.203559999999999945e+03,1.115076360676684999e+03
1.201859999999999900e+03,1.304278626190149225e+03
1.200150000000000091e+03,1.266223475496095489e+03
1.198450000000000045e+03,1.345791436672807322e+03
1.196750000000000000e+03,1.213172383957251441e+03
1.195039999999999964e+03,1.524915083750485792e+03
1.193339999999999918e+03,1.410441726698176353e+03
1.191630000000000109e+03,1.671889567423218978e+03
1.189930000000000064e+03,1.933961906034121057e+03
1.188220000000000027e+03,2.021594887691040640e+03
1.186519999999999982e+03,2.191112921965162968e+03
1.184809999999999945e+03,2.021351044553855900e+03
1.183099999999999909e+03,2.570901598518961691e+03
1.181400000000000091e+03,2.468118038011743920e+03
1.179690000000000055e+03,2.375093732908673701e+03
1.177980000000000018e+03,2.627041859181961627e+03
1.176269999999999982e+03,2.992122416831640294e+03
1.174569999999999936e+03,2.968309971098569804e+03
1.172859999999999900e+03,2.971195669680062565e+03
1.171150000000000091e+03,3.381033799637894845e+03
1.169440000000000055e+03,3.161284360972131253e+03
1.167730000000000018e+03,3.480507353682740359e+03
1.166019999999999982e+03,3.784662777769699460e+03
1.164309999999999945e+03,3.830670633233065018e+03
1.162599999999999909e+03,4.140170920072763693e+03
1.160880000000000109e+03,4.384486847615247825e+03
1.159170000000000073e+03,4.571351719028636580e+03
1.157460000000000036e+03,4.730389021818380570e+03
1.155750000000000000e+03,5.076458755984494928e+03
1.154029999999999973e+03,4.840483016510290327e+03
1.152319999999999936e+03,5.109077335250040051e+03
1.150609999999999900e+03,5.471764085366208747e+03
1.148890000000000100e+03,5.525764525677950587e+03
1.147180000000000064e+03,5.607095860367757268e+03
1.145460000000000036e+03,5.888140327268236433e+03
1.143750000000000000e+03,5.944836246531704091e+03
1.142029999999999973e+03,6.159264740020873433e+03
1.140319999999999936e+03,6.079525243858006434e+03
1.138599999999999909e+03,6.566697763935881085e+03
1.136880000000000109e+03,6.827682157405193720e+03
1.135160000000000082e+03,7.216398424265935319e+03
1.133450000000000045e+03,7.442107819071272388e+03
1.131730000000000018e+03,7.381768112520723662e+03
1.130009999999999991e+03,7.590520279361589928e+03
1.128289999999999964e+03,7.855064319593882828e+03
1.126569999999999936e+03,8.184300233217596542e+03
1.124849999999999909e+03,8.320068020232727577e+03
1.123130000000000109e+03,8.506347680639257305e+03
1.121410000000000082e+03,8.331879214437249175e+03
1.119690000000000055e+03,8.643542621626649634e+03
1.117970000000000027e+03,8.515037902207477600e+03
1.116250000000000000e+03,9.141925056179716194e+03
1.114529999999999973e+03,9.436404083543391607e+03
1.112799999999999955e+03,9.548450372074919869e+03
1.111079999999999927e+03,9.745452866415558674e+03
1.109359999999999900e+03,1.000592723414762440e+04
1.107630000000000109e+03,1.029474802200317208e+04
1.105910000000000082e+03,1.047488585671223700e+04
1.104190000000000055e+03,1.062539556481270847e+04
1.102460000000000036e+03,1.075503085199231282e+04
1.100740000000000009e+03,1.100564402706976398e+04
1.099009999999999991e+03,1.112670221998784109e+04
1.097279999999999973e+03,1.135345172505882510e+04
1.095559999999999945e+03,1.148183996069880232e+04
1.093829999999999927e+03,1.152333237150827335e+04
1.092099999999999909e+03,1.166647609447065770e+04
1.090380000000000109e+03,1.174693939067317842e+04
1.088650000000000091e+03,1.240178601937401982e+04
1.086920000000000073e+03,1.243438396022779489e+04
1.085190000000000055e+03,1.261591321323448210e+04
1.083460000000000036e+03,1.303245377839408320e+04
1.081730000000000018e+03,1.316082565570661245e+04
1.080000000000000000e+03,1.336834884517205501e+04
1.078269999999999982e+03,1.362172334679038613e+04
1.076539999999999964e+03,1.359330916056166461e+04
1.074809999999999945e+03,1.395626628648582846e+04
1.073079999999999927e+03,1.391245472456295101e+04
1.071349999999999909e+03,1.420413447479296883e+04
1.069609999999999900e+03,1.426655389889694925e+04
1.067880000000000109e+03,1.464747599200015975e+04
1.066150000000000091e+03,1.505882939725626784e+04
1.064420000000000073e+03,1.508115411466533260e+04
1.062680000000000064e+03,1.538383737859099347e+04
1.060950000000000045e+03,1.573728443887321919e+04
1.059210000000000036e+03,1.584282948118000058e+04
1.057480000000000018e+03,1.615999888433543674e+04
1.055740000000000009e+03,1.626018570502335206e+04
1.054009999999999991e+03,1.656387745105195791e+04
1.052269999999999982e+03,1.659220605012101441e+04
1.050529999999999973e+03,1.683040539685093972e+04
1.048799999999999955e+03,1.720081051647300046e+04
1.047059999999999945e+03,1.744735164158402767e+04
1.045319999999999936e+03,1.758190351435593038e+04
1.043579999999999927e+03,1.781502613478867715e+04
1.041849999999999909e+03,1.781845565872448060e+04
1.040109999999999900e+03,1.804626005753835489e+04
1.038369999999999891e+03,1.813855520401307876e+04
1.036630000000000109e+03,1.851816109814865922e+04
1.034890000000000100e+03,1.874505773994507763e+04
1.033150000000000091e+03,1.876354512940235145e+04
1.031410000000000082e+03,1.894056326652049029e+04
1.029660000000000082e+03,1.932259401404132950e+04
1.027920000000000073e+03,1.921377336342175840e+04
1.026180000000000064e+03,1.924274346046303981e+04
1.024440000000000055e+03,1.960308430516516819e+04
1.022690000000000055e+03,1.979497662640552880e+04
1.020950000000000045e+03,2.020151868336994812e+04
1.019210000000000036e+03,2.035067148799523420e+04
1.017460000000000036e+03,2.073027491835370165e+04
1.015720000000000027e+03,2.073046893524125335e+04
1.013970000000000027e+03,2.091041301011640462e+04
1.012230000000000018e+03,2.099044823926626123e+04
1.010480000000000018e+03,2.123065295865805820e+04
1.008740000000000009e+03,2.105460940007017780e+04
1.006990000000000009e+03,2.138199476397866965e+04
1.005240000000000009e+03,2.133653030780238623e+04
1.003500000000000000e+03,2.151653842607822298e+04
1.001750000000000000e+03,2.122337461441861524e+04
1.000000000000000000e+03,2.110190098267420399e+04
9.982519999999999527e+02,2.141557018036895897e+04
9.965030000000000427e+02,2.125945331859842554e+04
9.947540000000000191e+02,2.168190669366413204e+04
9.930040000000000191e+02,2.164417389545512560e+04
9.912540000000000191e+02,2.184611127716141345e+04
9.895030000000000427e+02,2.162986237171854737e+04
9.877519999999999527e+02,2.181322358923740103e+04
9.860009999999999764e+02,2.170929492971795844e+04
9.842490000000000236e+02,2.173735984062495845e+04
9.824969999999999573e+02,2.167573481750765495e+04
9.807440000000000282e+02,2.145876325081212417e+04
9.789919999999999618e+02,2.154133833114503068e+04
9.772380000000000564e+02,2.145711014429242641e+04
9.754840000000000373e+02,2.129681190934580809e+04
9.737300000000000182e+02,2.134408362630516785e+04
9.719759999999999991e+02,2.114030529517053219e+04
9.702210000000000036e+02,2.112296013520212728e+04
9.684650000000000318e+02,2.088264806075006345e+04
9.667100000000000364e+02,2.051624266187640751e+04
9.649539999999999509e+02,2.065429029140288185e+04
9.631970000000000027e+02,2.049033086363085749e+04
9.614400000000000546e+02,2.021004121641624806e+04
9.596829999999999927e+02,2.014810134975910478e+04
9.579249999999999545e+02,2.006889428289097850e+04
9.561670000000000300e+02,2.011111693939899851e+04
9.544080000000000155e+02,1.973717228130101284e+04
9.526490000000000009e+02,1.961125728936540690e+04
9.508899999999999864e+02,1.949477196359218215e+04
9.491299999999999955e+02,1.936161918013777176e+04
9.473700000000000045e+02,1.896407600559945422e+04
9.456090000000000373e+02,1.879964525885473267e+04
9.438479999999999563e+02,1.869318406374721962e+04
9.420869999999999891e+02,1.822913242027690285e+04
9.403250000000000455e+02,1.817203306136236642e+04
9.385629999999999882e+02,1.814418319677363615e+04
9.367999999999999545e+02,1.760772550208537723e+04
9.350370000000000346e+02,1.738977724437897268e+04
9.332740000000000009e+02,1.723343842365447199e+04
9.315099999999999909e+02,1.688501162942987867e+04
9.297450000000000045e+02,1.665301677561618271e+04
9.279809999999999945e+02,1.651028871190601785e+04
9.262160000000000082e+02,1.634675253119772242e+04
9.244500000000000455e+02,1.594514814735336404e+04
9.226839999999999691e+02,1.586143302826385479e+04
9.209180000000000064e+02,1.524498717392917024e+04
9.191509999999999536e+02,1.504405297281392268e+04
9.173840000000000146e+02,1.489612797897944256e+04
9.156169999999999618e+02,1.472477219242573483e+04
9.138490000000000464e+02,1.407392791536557343e+04
9.120810000000000173e+02,1.374427278807957191e+04
9.103120000000000118e+02,1.386144905524139176e+04
9.085430000000000064e+02,1.328533441463818599e+04
9.067730000000000246e+02,1.295901105337197077e+04
9.050030000000000427e+02,1.274077672676908696e+04
9.032329999999999472e+02,1.224159143482951913e+04
9.014619999999999891e+02,1.225997727825703623e+04
8.996910000000000309e+02,1.213497209874366672e+04
8.979189999999999827e+02,1.147749793935642811e+04
8.961470000000000482e+02,1.117159269939152000e+04
8.943750000000000000e+02,1.078941637884896045e+04
8.926019999999999754e+02,1.048811093429998436e+04
8.908289999999999509e+02,1.022757435150406673e+04
8.890549999999999500e+02,1.001762852933058457e+04
8.872809999999999491e+02,9.546531511208340817e+03
8.855069999999999482e+02,9.516923297137349437e+03
8.837319999999999709e+02,9.217185699393565301e+03
8.819569999999999936e+02,8.956176847966649802e+03
8.801810000000000400e+02,8.771658497365679068e+03
8.784049999999999727e+02,8.706608835314706084e+03
8.766280000000000427e+02,8.436149558523349697e+03
8.748519999999999754e+02,8.090637244680758158e+03
8.730739999999999554e+02,8.013776897192299657e+03
8.712970000000000255e+02,7.839283512652589707e+03
8.695180000000000291e+02,7.693401920971111394e+03
8.677400000000000091e+02,7.431987292238402006e+03
8.659610000000000127e+02,7.651902759605465690e+03
8.641810000000000400e+02,7.281688236251160561e+03
8.624020000000000437e+02,7.215840704785987327e+03
8.606209999999999809e+02,7.004624561013675702e+03
8.588410000000000082e+02,7.051495409130475309e+03
8.570599999999999454e+02,6.987536092786009249e+03
8.552780000000000200e+02,6.898646525061456487e+03
8.534969999999999573e+02,6.833063978199003031e+03
8.517140000000000555e+02,6.922472413408453576e+03
8.499320000000000164e+02,6.996067869479986257e+03
8.481490000000000009e+02,6.787852900236335699e+03
8.463650000000000091e+02,6.839707418661098927e+03
8.445810000000000173e+02,7.042290162329416489e+03
8.427970000000000255e+02,6.928981131241256662e+03
8.410119999999999436e+02,7.028101442712904827e+03
8.392269999999999754e+02,7.021629921368381474e+03
8.374410000000000309e+02,7.099747626431701065e+03
8.356549999999999727e+02,7.144533440586572397e+03
8.338690000000000282e+02,7.296447363833001873e+03
8.320819999999999936e+02,7.532330368215989438e+03
8.302949999999999591e+02,7.628521423565747682e+03
8.285069999999999482e+02,7.898961443769941980e+03
8.267190000000000509e+02,7.857989456783572678e+03
8.249310000000000400e+02,8.205665462606652000e+03
8.231420000000000528e+02,8.434710287850204622e+03
8.213529999999999518e+02,8.772643047713347187e+03
8.195629999999999882e+02,8.785864510584695381e+03
8.177730000000000246e+02,9.100673849853228603e+03
8.159819999999999709e+02,9.253191775652645447e+03
8.141910000000000309e+02,9.479597519594317419e+03
8.123999999999999773e+02,9.871111081678274786e+03
8.106079999999999472e+02,1.022287308461510111e+04
8.088160000000000309e+02,1.050864284740672156e+04
8.070230000000000246e+02,1.100992093444376951e+04
8.052300000000000182e+02,1.115068672301563493e+04
8.034370000000000118e+02,1.163824021312226978e+04
8.016430000000000291e+02,1.171414188163366634e+04
7.998479999999999563e+02,1.219973164099660062e+04
7.980539999999999736e+02,1.231062856668810855e+04
7.962590000000000146e+02,1.255073352484607312e+04
7.944629999999999654e+02,1.301074642786851473e+04
7.926670000000000300e+02,1.323114685727054166e+04
7.908709999999999809e+02,1.364821481305212365e+04
7.890739999999999554e+02,1.370311056761348300e+04
7.872770000000000437e+02,1.399555379010429169e+04
7.854790000000000418e+02,1.406536469444202521e+04
7.836810000000000400e+02,1.422308300822652382e+04
7.818819999999999482e+02,1.437794888686008926e+04
7.800839999999999463e+02,1.464972199028863542e+04
7.782839999999999918e+02,1.505984269692181988e+04
7.764840000000000373e+02,1.528837069593880733e+04
7.746839999999999691e+02,1.527234598733959137e+04
7.728840000000000146e+02,1.528076857112415018e+04
7.710829999999999700e+02,1.559653842701901158e+04
7.692809999999999491e+02,1.522919546712937154e+04
7.674790000000000418e+02,1.564867968243037467e+04
7.656770000000000209e+02,1.583877107292209257e+04
7.638750000000000000e+02,1.585464963860447460e+04
7.620710000000000264e+02,1.604417504573632323e+04
7.602680000000000291e+02,1.628762770696144435e+04
7.584640000000000555e+02,1.666152725917522912e+04
7.566599999999999682e+02,1.678841386925647384e+04
7.548550000000000182e+02,1.673626725293807976e+04
7.530499999999999545e+02,1.708134763577668491e+04
7.512440000000000282e+02,1.721695467476226622e+04
7.494379999999999882e+02,1.707344865416189714e+04
7.476309999999999718e+02,1.734104917219003983e+04
7.458250000000000455e+02,1.738295700303812191e+04
7.440170000000000528e+02,1.746809085316192068e+04
7.422100000000000364e+02,1.758443201610569668e+04
7.404009999999999536e+02,1.798337902190108434e+04
7.385929999999999609e+02,1.794033334051641577e+04
7.367839999999999918e+02,1.813777390372009540e+04
7.349740000000000464e+02,1.813958062322684418e+04
7.331639999999999873e+02,1.835323404785044113e+04
7.313540000000000418e+02,1.867285417759085976e+04
7.295430000000000064e+02,1.882888031641092675e+04
7.277319999999999709e+02,1.911407310144219082e+04
7.259210000000000491e+02,1.896935253268462839e+04
7.241090000000000373e+02,1.918597782570197160e+04
7.222960000000000491e+02,1.926346889206249762e+04
7.204840000000000373e+02,1.971214733014863305e+04
7.186699999999999591e+02,1.993127060969047307e+04
7.168569999999999709e+02,2.006808126095792250e+04
7.150430000000000064e+02,2.014975750860762491e+04
7.132279999999999518e+02,2.023143926411031862e+04
7.114130000000000109e+02,2.033760742987626872e+04
7.095979999999999563e+02,2.066048200590552733e+04
7.077820000000000391e+02,2.095846194215761352e+04
7.059660000000000082e+02,2.110950822960466030e+04
7.041490000000000009e+02,2.121571975910539186e+04
7.023319999999999936e+02,2.135821758070023498e+04
7.005140000000000100e+02,2.130808052611449966e+04
6.986970000000000027e+02,2.178077090233897616e+04
6.968780000000000427e+02,2.236084511582517007e+04
6.950589999999999691e+02,2.214394550310617342e+04
6.932400000000000091e+02,2.246011206418192160e+04
6.914210000000000491e+02,2.265682479905247601e+04
6.896000000000000227e+02,2.263242101609161182e+04
6.877799999999999727e+02,2.296664466394092597e+04
6.859589999999999463e+02,2.322113302133432444e+04
6.841380000000000337e+02,2.320400743409302231e+04
6.823160000000000309e+02,2.320118643790131318e+04
6.804940000000000282e+02,2.355015143781138613e+04
6.786710000000000491e+02,2.366278091021140426e+04
6.768479999999999563e+02,2.400025631941714528e+04
6.750240000000000009e+02,2.405355608248817589e+04
6.732010000000000218e+02,2.442008333564918576e+04
6.713759999999999764e+02,2.473641324106157845e+04
6.695510000000000446e+02,2.454838896458993986e+04
6.677259999999999991e+02,2.496013050623427989e+04
6.659009999999999536e+02,2.520783786599460291e+04
6.640739999999999554e+02,2.547256752174185385e+04
6.622480000000000473e+02,2.561660466757909307e+04
6.604210000000000491e+02,2.601106575163975504e+04
6.585940000000000509e+02,2.632601253499652375e+04
6.567659999999999627e+02,2.655548313769177184e+04
6.549379999999999882e+02,2.680479938022435817e+04
6.531090000000000373e+02,2.698021932314539299e+04
6.512799999999999727e+02,2.741086484641249262e+04
6.494500000000000455e+02,2.781071395105295232e+04
6.476200000000000045e+02,2.826262857651564264e+04
6.457899999999999636e+02,2.893414872280059353e+04
6.439589999999999463e+02,2.928151230160868727e+04
6.421280000000000427e+02,2.960144134168265009e+04
6.402960000000000491e+02,3.006751369513451937e+04
6.384640000000000555e+02,3.022201145026340964e+04
6.366319999999999482e+02,3.105663460706930346e+04
6.347989999999999782e+02,3.133468092824018822e+04
6.329650000000000318e+02,3.162441032431955682e+04
6.311309999999999718e+02,3.209334500280053908e+04
6.292970000000000255e+02,3.262804496368313994e+04
6.274619999999999891e+02,3.354404785029866616e+04
6.256269999999999527e+02,3.385859595962929598e+04
6.237920000000000300e+02,3.437724929167507798e+04
6.219560000000000173e+02,3.483904540019681735e+04
6.201190000000000282e+02,3.538864419559163071e+04
6.182820000000000391e+02,3.579644809423097468e+04
6.164450000000000500e+02,3.654933709611483937e+04
6.146069999999999709e+02,3.723936863545217784e+04
6.127690000000000055e+02,3.770218521824992786e+04
6.109299999999999500e+02,3.862930421890041907e+04
6.090910000000000082e+02,3.926020820319469203e+04
6.072519999999999527e+02,3.996523717113275052e+04
6.054120000000000346e+02,4.056864840734127938e+04
6.035720000000000027e+02,4.116438456734441570e+04
6.017309999999999945e+02,4.172024287588713196e+04
5.998899999999999864e+02,4.227338604834277794e+04
5.980480000000000018e+02,4.287219124954203289e+04
5.962060000000000173e+02,4.308150125473995286e+04
5.943630000000000564e+02,4.394931316882051033e+04
5.925199999999999818e+02,4.445994982695291401e+04
5.906770000000000209e+02,4.503737122913722123e+04
5.888329999999999700e+02,4.502931439029653120e+04
5.869890000000000327e+02,4.533224223552837793e+04
5.851440000000000055e+02,4.597441171974406461e+04
5.832989999999999782e+02,4.616234582802045770e+04
5.814529999999999745e+02,4.648788145522445120e+04
5.796069999999999709e+02,4.702016164644477249e+04
5.777609999999999673e+02,4.687606640168141894e+04
5.759139999999999873e+02,4.752145252569401782e+04
5.740660000000000309e+02,4.747617992834278266e+04
5.722179999999999609e+02,4.785705177482151339e+04
5.703700000000000045e+02,4.824506806513018091e+04
5.685209999999999582e+02,4.805144548376071907e+04
5.666720000000000255e+02,4.839030728607918718e+04
5.648229999999999791e+02,4.842567347208566207e+04
5.629729999999999563e+02,4.846808063601829053e+04
5.611219999999999573e+02,4.881774868759095261e+04
5.592709999999999582e+02,4.893246100246995775e+04
5.574199999999999591e+02,4.895531758065536997e+04
5.555679999999999836e+02,4.974641489592243306e+04
5.537160000000000082e+02,4.975149641425626760e+04
5.518630000000000564e+02,4.998551854916004231e+04
5.500099999999999909e+02,5.013386482685846568e+04
5.481570000000000391e+02,5.045263524735151441e+04
5.463029999999999973e+02,5.041422613369349710e+04
5.444479999999999791e+02,5.080885739540298528e+04
5.425940000000000509e+02,5.117819641656441672e+04
5.407380000000000564e+02,5.164635198528027104e+04
5.388819999999999482e+02,5.181681151577911078e+04
5.370259999999999536e+02,5.242061500806100958e+04
5.351699999999999591e+02,5.274748246212588128e+04
5.333129999999999882e+02,5.294152998970960471e+04
5.314550000000000409e+02,5.387067750018430525e+04
5.295969999999999800e+02,5.380308885160493082e+04
5.277390000000000327e+02,5.455798404397147533e+04
5.258799999999999955e+02,5.470279906810134707e+04
5.240199999999999818e+02,5.520411383326903888e+04
5.221609999999999445e+02,5.537423638811423734e+04
5.203010000000000446e+02,5.567649862349741306e+04
5.184400000000000546e+02,5.561916044864435389e+04
5.165789999999999509e+02,5.582426593323757697e+04
5.147169999999999845e+02,5.631537088649717771e+04
5.128550000000000182e+02,5.635187943863809778e+04
5.109929999999999950e+02,5.665415158966030140e+04
5.091299999999999955e+02,5.646140305789588456e+04
5.072669999999999959e+02,5.639427806441525900e+04
5.054030000000000200e+02,5.665907226692044060e+04
5.035389999999999873e+02,5.650640994707944628e+04
5.016739999999999782e+02,5.670590670193164260e+04
4.998090000000000259e+02,5.645306687377508206e+04
4.979429999999999836e+02,5.696396599895411055e+04
4.960769999999999982e+02,5.683928848042925529e+04
4.942110000000000127e+02,5.713873431820055703e+04
4.923439999999999941e+02,5.677517895752898767e+04
4.904769999999999754e+02,5.673498689242593537e+04
4.886089999999999804e+02,5.674357350739224785e+04
4.867409999999999854e+02,5.664670335716685804e+04
4.848720000000000141e+02,5.648221176545796334e+04
4.830029999999999859e+02,5.648148334776473348e+04
4.811329999999999814e+02,5.663217336696997518e+04
4.792629999999999768e+02,5.623276649936563626e+04
4.773929999999999723e+02,5.636576274495170219e+04
4.755219999999999914e+02,5.574513727533251222e+04
4.736499999999999773e+02,5.602280999919703027e+04
4.717789999999999964e+02,5.562823060380604875e+04
4.699060000000000059e+02,5.567454442125295463e+04
4.680339999999999918e+02,5.532802611944440287e+04
4.661600000000000250e+02,5.541180084770516260e+04
4.642869999999999777e+02,5.533000345671050309e+04
4.624130000000000109e+02,5.477552395458523824e+04
4.605380000000000109e+02,5.436058224987199355e+04
4.586630000000000109e+02,5.421622335373489477e+04
4.567880000000000109e+02,5.405806726617397362e+04
4.549119999999999777e+02,5.376912882351457665e+04
4.530350000000000250e+02,5.408660793420160189e+04
4.511589999999999918e+02,5.376209495613527542e+04
4.492810000000000059e+02,5.348177421508385305e+04
4.474039999999999964e+02,5.332694138527906034e+04
4.455249999999999773e+02,5.304286060923262994e+04
4.436469999999999914e+02,5.274928774443278962e+04
4.417679999999999723e+02,5.242793212755180139e+04
4.398879999999999768e+02,5.212701366688813141e+04
4.380079999999999814e+02,5.179511770937297842e+04
4.361279999999999859e+02,5.192280425500638376e+04
4.342470000000000141e+02,5.153606780393995723e+04
4.323659999999999854e+02,5.145439379483893572e+04
4.304839999999999804e+02,5.092371666663929500e+04
4.286019999999999754e+02,5.089058191918939701e+04
4.267189999999999941e+02,5.014390393017700990e+04
4.248360000000000127e+02,5.033106826066615758e+04
4.229519999999999982e+02,5.016648922706386657e+04
4.210679999999999836e+02,4.986661245168239111e+04
4.191829999999999927e+02,4.979407218961545004e+04
4.172980000000000018e+02,4.975147412445605005e+04
4.154130000000000109e+02,4.972799825620416959e+04
4.135269999999999868e+02,4.940867874794300587e+04
4.116410000000000196e+02,4.944864137524354737e+04
4.097540000000000191e+02,4.936704023981065257e+04
4.078670000000000186e+02,4.905914117856112716e+04
4.059789999999999850e+02,4.897317823178891558e+04
4.040910000000000082e+02,4.886071729778920417e+04
4.022019999999999982e+02,4.854905235541253933e+04
4.003129999999999882e+02,4.861994936436494754e+04
3.984230000000000018e+02,4.879718224202097917e+04
3.965330000000000155e+02,4.855931700953019026e+04
3.946429999999999723e+02,4.870975366689251678e+04
3.927520000000000095e+02,4.870206603922794602e+04
3.908600000000000136e+02,4.833381403424936434e+04
3.889689999999999941e+02,4.841921003251170623e+04
3.870760000000000218e+02,4.791515532470305334e+04
3.851829999999999927e+02,4.793382232212446979e+04
3.832900000000000205e+02,4.818991102477595268e+04
3.813960000000000150e+02,4.803665507304052880e+04
3.795020000000000095e+02,4.786524076492909080e+04
3.776080000000000041e+02,4.789286810044161393e+04
3.757119999999999891e+02,4.793090417542830983e+04
3.738170000000000073e+02,4.771030825365592318e+04
3.719209999999999923e+02,4.775540740011468733e+04
3.700240000000000009e+02,4.789468152227343671e+04
3.681270000000000095e+02,4.741229710304267064e+04
3.662300000000000182e+02,4.752227414242237865e+04
3.643319999999999936e+02,4.764700600320215744e+04
3.624340000000000259e+02,4.743791926085616433e+04
3.605350000000000250e+02,4.753680721640525007e+04
3.586360000000000241e+02,4.768509650705980312e+04
3.567359999999999900e+02,4.775288037203936256e+04
3.548360000000000127e+02,4.784394551032306481e+04
3.529350000000000023e+02,4.798716509929660242e+04
3.510339999999999918e+02,4.801664589974046248e+04
3.491320000000000050e+02,4.787864102717394417e+04
3.472300000000000182e+02,4.774755730421138287e+04
3.453279999999999745e+02,4.801227473085273959e+04
3.434250000000000114e+02,4.821516632977710833e+04
3.415210000000000150e+02,4.808753200811171700e+04
3.396170000000000186e+02,4.795679871221990470e+04
3.377130000000000223e+02,4.808528644210166385e+04
3.358079999999999927e+02,4.816566809652437223e+04
3.339030000000000200e+02,4.821815071475667355e+04
3.319970000000000141e+02,4.819642713356940658e+04
3.300910000000000082e+02,4.807134445419522672e+04
3.281840000000000259e+02,4.854689545137588721e+04
3.262769999999999868e+02,4.833264728834058769e+04
3.243690000000000282e+02,4.848527267776947701e+04
3.224610000000000127e+02,4.873837884492082230e+04
3.205520000000000209e+02,4.892461844038064737e+04
3.186429999999999723e+02,4.884805875146877224e+04
3.167339999999999804e+02,4.925043977818520216e+04
3.148240000000000123e+02,4.905919407793413848e+04
3.129130000000000109e+02,4.905514155750117789e+04
3.110020000000000095e+02,4.910370962841067376e+04
3.090910000000000082e+02,4.921111829066261271e+04
3.071789999999999736e+02,4.921361997729397262e+04
3.052669999999999959e+02,4.920040219307605003e+04
3.033539999999999850e+02,4.901027730882159813e+04
3.014399999999999977e+02,4.909258523116978176e+04
2.995269999999999868e+02,4.908776124964791234e+04
2.976120000000000232e+02,4.917940228987501177e+04
2.956979999999999791e+02,4.899991142623208725e+04
2.937819999999999823e+02,4.917744539747010276e+04
2.918670000000000186e+02,4.914990746483808471e+04
2.899510000000000218e+02,4.900346202736200212e+04
2.880339999999999918e+02,4.900476899153464910e+04
2.861170000000000186e+02,4.889861617341129022e+04
2.841990000000000123e+02,4.904887563219531148e+04
2.822810000000000059e+02,4.915077524629638356e+04
2.803629999999999995e+02,4.895447501571451721e+04
2.784440000000000168e+02,4.905456690603197785e+04
2.765240000000000009e+02,4.907649082359513704e+04
2.746039999999999850e+02,4.879547477160386188e+04
2.726840000000000259e+02,4.877835875005814887e+04
2.707629999999999768e+02,4.898643459958740277e+04
2.688419999999999845e+02,4.904083041707768280e+04
2.669200000000000159e+02,4.871569798064130009e+04
2.649970000000000141e+02,4.888853719647822436e+04
2.630749999999999886e+02,4.901158453966298839e+04
2.611510000000000105e+02,4.909745515683494887e+04
2.592269999999999754e+02,4.871832555431903165e+04
2.573029999999999973e+02,4.898193573211526382e+04
2.553789999999999907e+02,4.904354569022359647e+04
2.534530000000000030e+02,4.972773854672857124e+04
2.515279999999999916e+02,4.939343953058137413e+04
2.496009999999999991e+02,4.950042322488909849e+04
2.476750000000000114e+02,4.971367504654468212e+04
2.457479999999999905e+02,4.996733795694129367e+04
2.438199999999999932e+02,4.988605186203490302e+04
2.418919999999999959e+02,5.030292529678666324e+04
2.399629999999999939e+02,5.031698960077824449e+04
2.380339999999999918e+02,5.067267337168314407e+04
2.361049999999999898e+02,5.083327660950135032e+04
2.341750000000000114e+02,5.139981055965660198e+04
2.322439999999999998e+02,5.124189512795850169e+04
2.303129999999999882e+02,5.140197903758642497e+04
2.283820000000000050e+02,5.122366228854035580e+04
2.264499999999999886e+02,5.145281600057547621e+04
2.245180000000000007e+02,5.188106899109414371e+04
2.225850000000000080e+02,5.186009231697657378e+04
2.206510000000000105e+02,5.204704588388590491e+04
2.187179999999999893e+02,5.208128760953988240e+04
2.167829999999999870e+02,5.221697047580774233e+04
2.148480000000000132e+02,5.215301243183662882e+04
2.129130000000000109e+02,5.213225347762653837e+04
2.109770000000000039e+02,5.195266448122123256e+04
2.090409999999999968e+02,5.231281451160436700e+04
2.071040000000000134e+02,5.226209437381456519e+04
2.051670000000000016e+02,5.220393319980807428e+04
2.032290000000000134e+02,5.247246173158587771e+04
2.012909999999999968e+02,5.265078916410935199e+04
1.993520000000000039e+02,5.265500617630924535e+04
1.974130000000000109e+02,5.270222202618461597e+04
1.954730000000000132e+02,5.240250732956349384e+04
1.935329999999999870e+02,5.255417140751511033e+04
1.915929999999999893e+02,5.252977426003944129e+04
1.896510000000000105e+02,5.274629692938683002e+04
1.877100000000000080e+02,5.293738775747890759e+04
1.857680000000000007e+02,5.306766775495764159e+04
1.838249999999999886e+02,5.308079682704700099e+04
1.818820000000000050e+02,5.328328448420567292e+04
1.799379999999999882e+02,5.326034108954173280e+04
1.779939999999999998e+02,5.360697621671425441e+04
1.760500000000000114e+02,5.381506986572321330e+04
1.741049999999999898e+02,5.385859230478671816e+04
1.721589999999999918e+02,5.415828343898225285e+04
1.702129999999999939e+02,5.437671296845088364e+04
1.682659999999999911e+02,5.457161106642310915e+04
1.663189999999999884e+02,5.492382749633798085e+04
1.643720000000000141e+02,5.518442225819546729e+04
1.624240000000000066e+02,5.555634543018967815e+04
1.604749999999999943e+02,5.560581691725171549e+04
1.585260000000000105e+02,5.604078660949781624e+04
1.565769999999999982e+02,5.603361450692798098e+04
1.546270000000000095e+02,5.633059056089641672e+04
1.526759999999999877e+02,5.651411467623658973e+04
1.507249999999999943e+02,5.669857686987212219e+04
1.487740000000000009e+02,5.685419714180300798e+04
1.468220000000000027e+02,5.698852531641341920e+04
1.448700000000000045e+02,5.708409150582602888e+04
1.429170000000000016e+02,5.697838547089930944e+04
1.409629999999999939e+02,5.763964711632033141e+04
1.390089999999999861e+02,5.784682664945963188e+04
1.370550000000000068e+02,5.762280407031720097e+04
1.350999999999999943e+02,5.757694901258627942e+04
1.331440000000000055e+02,5.755310138085630751e+04
1.311879999999999882e+02,5.803335150963055639e+04
1.292319999999999993e+02,5.791919939890902606e+04
1.272750000000000057e+02,5.812009455508952669e+04
1.253179999999999978e+02,5.823228740811840544e+04
1.233599999999999994e+02,5.843428740070512140e+04
1.214009999999999962e+02,5.782285443729271356e+04
1.194419999999999931e+02,5.758379904331942816e+04
1.174830000000000041e+02,5.766868121878523380e+04
1.155229999999999961e+02,5.699563027890899684e+04
1.135630000000000024e+02,5.662639684471840883e+04
1.116020000000000039e+02,5.605973016764636850e+04
1.096400000000000006e+02,5.636625015198947949e+04
1.076779999999999973e+02,5.660530751441376924e+04
1.057159999999999940e+02,5.605182225491925055e+04
1.037530000000000001e+02,5.492450349725294654e+04
1.017900000000000063e+02,5.516166205381676264e+04
9.982569999999999766e+01,5.580078170243003842e+04
9.786119999999999663e+01,5.605034838779722486e+04
9.589629999999999654e+01,5.679039188992939307e+04
9.393080000000000496e+01,5.819814196326010278e+04
9.196490000000000009e+01,5.866890876384133298e+04
8.999840000000000373e+01,5.871106203329283744e+04
8.803149999999999409e+01,5.836777194043486816e+04
8.606399999999999295e+01,5.877490821406686155e+04
8.409610000000000696e+01,5.878852103578381502e+04
8.212760000000000105e+01,5.725018012155836914e+04
8.015860000000000696e+01,5.502366053975791874e+04
7.818909999999999627e+01,5.376710224233555346e+04
7.621909999999999741e+01,5.343374518123218877e+04
7.424869999999999948e+01,5.251928444399968430e+04
7.227760000000000673e+01,5.028055457568506972e+04
7.030610000000000070e+01,4.518374093506212375e+04
6.833410000000000650e+01,3.745264833839976927e+04
6.636159999999999570e+01,2.779609673757793644e+04
6.438859999999999673e+01,1.779654608446428392e+04
6.241499999999999915e+01,1.010992117604054147e+04
6.044100000000000250e+01,4.913288270686325632e+03
5.846640000000000015e+01,1.553677007272096944e+03
